label,pred,exec_time_ms
0,0,8.733022
0,0,0.996927
1,1,0.935052
0,0,0.992239
2,2,0.966719
2,2,0.951199
0,0,1.008541
0,0,0.957343
0,0,0.970157
0,0,0.955521
0,0,1.014792
0,0,1.069167
0,0,1.094687
0,0,1.132032
0,0,1.020104
3,3,0.945625
0,0,1.063281
0,0,0.941562
2,2,0.944166
1,1,0.979427
0,0,0.955052
0,0,0.935208
0,0,0.943021
2,2,0.977605
0,0,0.980469
0,0,0.970625
0,0,1.028125
0,0,0.942657
0,0,0.943125
0,0,0.956563
0,0,1.004011
0,0,0.941355
0,0,0.941667
0,0,1.010625
0,0,0.940365
0,0,0.939375
0,0,0.945468
0,0,0.98448
0,0,0.943229
0,0,0.938281
0,0,1.003073
0,0,0.934427
2,2,0.93901
0,0,0.934479
0,0,0.97177
0,0,0.93651
0,0,0.969636
0,0,1.00526
0,0,0.956563
0,0,0.935052
0,0,0.939739
0,0,0.947916
0,0,0.946459
0,0,0.93974
0,0,1.030833
0,0,0.93849
0,0,0.945625
0,0,0.993854
0,0,0.94651
0,0,0.96474
0,0,0.947709
0,0,0.991511
2,2,0.937968
0,0,0.945937
0,0,0.999115
0,0,0.966146
0,0,0.940625
0,0,0.946771
1,1,1.003386
0,0,0.948438
0,0,0.938593
0,0,0.987708
0,0,0.946511
0,0,0.949115
0,0,0.947396
0,0,1.028386
0,0,0.939792
1,1,0.946458
0,0,1.000261
0,0,0.943073
0,0,0.940625
0,0,0.941458
1,1,0.979584
0,0,0.93901
0,0,0.946979
0,0,0.973646
0,0,0.931719
0,0,0.937083
0,0,0.943177
0,0,1.034115
0,0,0.94
0,0,0.939115
0,0,0.969375
0,0,0.951667
0,0,0.938333
0,0,0.945625
1,1,1.004792
0,0,0.942448
0,0,0.934688
0,0,1.00526
2,2,0.935469
0,0,0.947553
0,0,0.979636
0,0,0.989532
0,0,0.947657
0,0,0.942761
0,0,0.98474
2,2,0.940937
0,0,0.946719
0,0,1.017969
0,0,0.949427
0,0,0.945781
0,0,0.948802
0,0,0.984948
0,0,0.947292
0,0,0.957188
0,0,1.048906
0,0,0.946146
0,0,0.944948
0,0,1.005365
0,0,1.002083
0,0,0.943698
0,0,0.958958
0,0,1.018959
0,0,0.961407
0,0,0.945105
0,0,0.988229
0,0,0.948646
0,0,0.956719
0,0,0.944063
0,0,1.024896
0,0,0.948802
0,0,0.938594
0,0,0.996354
0,0,0.942656
0,0,0.956615
0,0,0.947969
0,0,1.037969
0,0,0.950938
0,0,0.945834
0,0,1.04099
0,0,0.956198
0,0,0.964583
0,0,0.94849
0,0,0.996614
0,0,0.953438
0,0,0.955365
1,1,1.015469
0,0,0.942657
0,0,1095.652922
0,0,0.790417
0,0,0.782344
0,0,0.767813
0,0,0.825782
0,0,0.804896
0,0,0.777656
0,0,0.774271
0,0,0.817396
0,0,0.771615
0,0,0.865417
0,0,0.776198
0,0,0.793333
0,0,0.764062
0,0,0.778698
0,3,0.771719
0,0,0.765052
0,0,0.829323
0,0,0.772292
0,0,0.77
0,0,0.775469
0,0,0.813073
0,0,0.77073
0,0,0.765781
0,0,0.768542
2,2,0.824635
0,0,0.782084
0,0,0.768646
0,0,0.768958
0,0,0.859688
0,0,0.768906
0,0,0.769323
0,0,0.775208
2,2,0.771458
0,0,0.821198
0,0,0.767448
0,0,0.768541
0,0,0.766771
0,0,0.801354
0,0,0.787761
0,0,0.768125
0,0,0.774323
1,1,0.829167
0,0,0.768802
0,0,0.769531
0,0,0.769792
0,0,0.80651
0,0,0.782604
0,0,0.777083
0,0,0.767813
2,2,0.772031
0,0,0.808021
0,0,0.772187
0,0,0.770157
0,0,0.774323
0,0,0.791823
0,0,0.784479
0,0,0.767865
0,0,0.76875
2,2,0.832187
0,0,0.766355
1,1,0.766979
0,0,0.769844
0,0,0.767344
0,0,0.769948
0,0,0.769323
0,0,0.776094
2,2,0.774584
0,0,0.840105
0,0,0.77151
0,0,0.773229
0,0,0.781459
0,0,0.805521
2,2,0.777708
2,2,0.771302
0,0,0.776511
1,2,0.797761
0,0,0.771771
0,0,0.772395
0,0,0.775729
0,0,0.787135
0,0,0.777917
0,0,0.772136
0,0,0.771875
0,0,0.775885
3,3,0.835521
0,0,0.781354
0,0,0.783021
0,0,0.788073
1,1,0.885885
0,0,0.761667
0,0,0.76875
0,0,0.776615
0,0,0.907344
0,0,0.776511
1,1,0.767656
0,0,0.775782
0,0,0.812448
2,2,0.775573
2,2,0.778386
0,0,0.777708
0,0,0.809323
0,0,0.769844
0,0,0.767136
2,2,0.769219
0,0,0.763178
0,0,0.808178
0,0,0.764687
0,0,0.776615
0,0,0.769063
0,0,0.807291
0,0,0.768855
2,2,0.770781
0,0,0.768854
0,0,0.811823
1,1,0.767656
0,0,0.775521
0,0,0.771198
0,0,0.774844
3,3,0.87849
2,2,0.772656
2,2,0.774375
0,0,0.775677
0,0,0.816718
0,0,0.771458
0,0,0.77401
2,2,0.770886
0,0,0.798854
0,0,0.772501
0,0,0.777656
0,0,0.773542
0,0,0.799167
0,0,0.775208
0,0,0.766823
0,0,0.775052
0,0,0.775833
2,2,0.814167
2,2,0.774114
0,0,0.771562
0,0,0.76823
0,0,0.796198
1,1,0.773073
0,0,0.766927
0,0,0.766303
0,0,0.816198
0,0,0.778333
0,0,0.76698
0,0,0.767083
0,0,0.815573
0,0,0.805052
0,0,0.770573
0,0,0.777239
0,0,0.769531
3,3,0.789948
2,2,0.768437
0,0,0.766198
2,2,0.766563
0,0,0.80875
0,0,0.77198
0,0,0.771562
0,0,0.774532
0,0,0.803125
0,0,0.77125
0,0,0.788282
0,0,0.781666
0,0,0.79901
0,0,0.769271
0,0,0.767969
0,0,0.769375
2,2,0.764636
0,0,0.8225
0,0,0.776302
0,0,0.767864
0,0,0.765781
0,0,0.809115
0,0,0.771667
0,0,0.765365
0,0,0.778906
0,0,0.861407
0,0,0.766927
0,0,0.76474
0,0,0.767969
0,0,0.781615
0,0,0.765
0,0,0.780573
0,0,0.783438
0,0,0.786354
0,0,0.823854
0,0,0.769375
0,0,0.76573
0,0,0.769219
0,0,0.819323
0,0,0.772188
0,0,0.769323
0,0,0.765677
2,2,0.895209
0,0,0.770416
0,0,0.769792
0,0,0.773125
0,0,0.801093
0,0,0.768698
0,0,0.77125
0,0,0.765521
0,0,0.766667
0,0,0.802864
0,0,0.77526
0,0,0.78
0,0,0.770261
0,0,0.875469
1,0,0.769271
2,2,0.772344
0,0,0.767187
0,0,0.819792
0,0,0.770521
0,0,0.767344
0,0,0.778802
0,0,0.792865
0,0,0.776198
0,0,0.772812
1,1,0.771719
2,2,0.776823
0,0,0.823438
0,0,0.768803
0,0,0.770208
0,0,0.765833
2,2,0.812344
0,0,0.766771
1,1,0.767187
0,0,0.766823
0,0,0.822969
0,0,0.774428
1,1,0.767344
0,0,0.780573
0,0,0.801562
2,2,0.772083
0,0,0.775833
0,0,0.771614
0,0,0.765677
0,0,0.84099
0,0,0.772135
0,0,0.76724
0,0,0.766667
0,0,0.803645
0,0,0.769792
0,0,0.782292
0,0,0.769063
2,2,0.844427
2,2,0.768125
0,0,0.766979
0,0,0.769583
0,0,0.814479
2,2,0.772188
0,0,0.766562
0,0,0.773125
0,0,0.769792
2,2,0.801406
0,0,0.772448
0,0,0.775313
1,1,0.768125
0,0,0.810625
0,0,0.773438
0,0,0.766042
0,1,0.769531
0,0,0.797812
2,2,0.766563
0,0,0.76526
2,2,0.772188
0,0,0.782656
0,0,0.803489
0,0,0.768229
0,0,0.768021
0,0,0.7675
0,0,0.81099
0,0,0.779791
0,0,0.763959
0,0,0.770261
1,1,0.806458
0,0,0.765416
0,0,0.767708
0,0,0.76474
0,0,0.787084
0,0,0.777396
0,0,0.77849
0,0,0.770625
0,0,0.805729
0,0,0.766667
0,0,0.766406
0,0,0.78026
0,0,0.767239
0,0,0.79875
2,2,0.768959
0,0,0.764219
0,0,0.764584
0,0,0.786458
0,0,0.7675
0,0,0.769428
2,2,0.7675
0,0,0.827343
0,0,0.819792
0,0,0.768334
0,0,0.769375
0,0,0.769166
0,0,0.821094
0,0,0.766823
1,1,0.765417
0,0,0.76776
0,0,0.810104
0,0,0.777552
0,0,0.773802
2,2,0.769427
0,0,0.793333
0,0,0.779427
0,0,0.766771
0,0,0.768334
0,0,0.808333
0,0,0.765677
0,0,0.779115
0,0,0.765677
0,0,0.771042
0,0,0.836979
0,0,0.775677
0,0,0.773178
0,0,0.769427
0,0,0.842084
0,0,0.772448
0,0,0.769584
0,0,0.769167
0,0,0.810625
0,0,0.810104
0,0,0.76875
0,0,0.776823
0,0,0.829167
0,0,0.773021
0,0,0.789219
0,0,0.780052
0,0,0.794531
2,2,0.766927
0,0,0.772187
0,0,0.766927
0,0,0.760938
0,0,0.810417
0,0,0.773646
0,0,0.765469
0,0,0.76375
0,0,0.795052
0,0,0.779011
0,0,0.768177
0,0,0.771719
0,0,0.829428
0,0,0.769376
0,0,0.777552
0,0,0.767917
2,2,0.766094
0,0,0.80375
0,0,0.770208
0,0,0.771615
0,0,0.766719
0,0,0.8525
0,0,0.766198
0,0,0.765834
0,0,0.771823
0,0,0.800937
0,0,0.772187
0,0,0.76573
0,0,0.766979
0,0,0.819063
0,0,0.766302
0,0,0.772865
0,0,0.7675
2,2,0.778802
0,0,0.802813
0,0,0.770001
0,0,0.765625
0,0,0.768803
0,4,0.831093
0,0,0.768282
0,0,0.768073
0,0,0.762968
0,0,0.797031
0,0,0.783177
0,0,0.780729
0,0,0.763073
0,0,0.819792
0,0,0.779271
0,1,0.775521
2,0,0.768334
0,0,0.784167
0,0,0.857657
0,0,0.770104
0,0,0.771094
0,0,0.76875
2,2,0.811042
0,0,0.772239
0,0,0.777968
2,2,0.767604
0,0,0.800313
0,0,0.779011
0,0,0.767916
0,0,0.7675
0,0,0.835104
0,0,0.763386
0,0,0.767604
1,1,0.768021
0,0,0.775
0,0,0.805573
0,0,0.772396
0,0,0.77224
0,0,0.766563
0,0,0.813021
0,0,0.768021
0,0,0.772448
0,0,0.768698
0,0,0.807396
0,0,0.770209
0,0,0.771666
0,0,0.76776
0,0,0.799062
0,1,0.800104
0,0,0.771563
0,0,0.769688
0,0,0.766198
0,0,0.804375
0,0,0.779427
0,0,0.775833
0,0,0.769271
0,0,0.843698
0,0,0.768125
0,0,0.77125
0,0,0.778594
0,0,0.81849
0,0,0.779063
2,2,0.77474
0,0,0.771615
0,0,0.813334
0,0,0.771979
2,2,0.770156
0,0,0.777657
2,2,0.782969
0,0,0.798125
2,2,0.772708
0,0,0.768125
0,0,0.767552
0,0,0.813802
0,0,0.768855
0,0,0.774011
0,0,0.768698
2,2,0.79375
0,0,0.81198
0,0,0.779011
0,0,0.774271
0,0,0.830052
0,0,0.787396
0,0,0.77026
0,0,0.764427
0,0,0.76651
2,2,0.802656
0,0,0.768021
0,0,0.765312
0,0,0.768802
0,0,0.792812
0,0,0.785573
0,0,0.767813
0,0,0.76474
0,0,0.887708
0,0,0.784583
0,0,0.770625
0,0,0.769375
0,0,0.807969
0,0,0.771719
0,0,0.771406
0,0,0.771094
0,0,0.785261
0,0,0.788229
0,0,0.772761
0,0,0.765104
0,0,0.774271
0,0,0.845156
0,0,0.827292
0,0,0.772969
0,0,0.766823
0,0,0.809167
1,1,0.770104
1,1,0.766771
0,0,0.769375
0,0,0.811458
0,0,0.77625
0,0,0.768021
0,0,0.767031
0,0,0.7975
0,0,0.78
0,0,0.770417
0,0,0.768229
0,0,0.774219
0,0,0.813282
0,0,0.768333
0,0,0.771511
0,0,0.773698
0,0,0.818698
0,0,0.773646
0,0,0.770521
0,0,0.765938
0,0,0.820573
0,0,0.776875
0,0,0.775312
0,0,0.78099
0,0,0.774011
0,0,0.846511
0,0,0.770312
0,0,0.769062
0,0,0.774479
0,0,0.79573
0,0,0.768177
0,0,0.77625
0,0,0.766355
0,0,0.805312
0,0,0.761562
0,0,0.774428
0,0,0.770469
0,0,0.82526
0,0,0.773438
0,0,0.770677
0,0,0.772813
0,0,0.770052
0,0,0.800834
0,0,0.783333
1,1,0.780053
0,0,0.774167
0,0,0.839792
0,0,0.777604
0,0,0.772656
0,0,0.775938
0,0,0.814115
0,0,0.779427
0,0,0.791771
0,0,0.768542
0,0,0.80224
0,0,0.825989
0,0,0.768645
0,0,0.768958
0,0,0.807448
0,0,0.769844
0,0,0.775104
0,0,0.773334
0,0,0.771302
0,0,0.816979
0,0,0.776041
0,0,0.772084
0,0,0.777396
0,0,0.790885
2,2,0.77224
0,0,0.770677
2,2,0.770469
0,0,0.808333
0,0,0.777968
0,0,0.771354
0,0,0.769218
0,0,0.804427
2,2,0.769219
0,0,0.76724
0,0,0.767865
0,0,0.7725
0,0,0.821302
0,0,0.769375
0,0,0.767656
0,0,0.766146
0,0,0.793802
0,0,0.819792
0,0,0.784687
0,0,0.770521
0,0,0.805625
0,0,0.766666
0,0,0.765417
0,0,0.769323
3,3,0.804636
0,0,0.788594
0,0,0.776198
2,2,0.768958
0,0,0.76599
0,0,0.837448
0,0,0.768333
0,0,0.772865
0,0,0.779167
0,0,0.8125
0,0,0.766771
1,0,0.764323
0,0,0.765573
0,0,0.794271
0,0,0.771875
0,0,0.76875
0,0,0.764739
0,0,0.763855
0,0,0.795364
0,0,0.768959
0,0,0.774948
0,0,0.774531
0,0,0.820416
0,0,0.830573
2,2,0.763854
3,3,0.768021
0,0,0.801771
0,0,0.772031
0,0,0.778229
0,0,0.771875
0,0,0.829427
0,0,0.77349
0,0,0.777657
0,0,0.771302
0,0,0.797292
0,0,0.778802
0,0,0.77302
0,0,0.784479
0,0,0.767187
0,0,0.827604
0,0,0.770469
1,1,0.772917
0,0,0.767396
2,2,0.796927
0,0,0.769219
0,0,0.776666
2,2,0.774531
0,0,0.806146
0,0,0.787552
0,0,0.785625
0,0,0.770938
0,0,0.81974
0,0,0.777188
0,0,0.817292
0,0,0.780573
0,0,0.781823
0,0,0.834688
0,0,0.786042
0,0,0.771406
0,0,0.76849
0,0,0.810521
0,0,0.775625
2,2,0.782552
0,0,0.769687
0,0,0.841406
0,0,0.782291
0,0,0.775625
0,0,0.785313
0,0,0.802656
0,0,0.771667
0,0,0.769739
0,0,0.763698
0,0,0.772343
0,0,0.8
0,0,0.769532
0,0,0.767708
0,0,0.782135
0,0,0.802865
0,0,0.769166
0,0,0.768281
0,0,0.776303
0,0,0.827187
0,0,0.81401
0,0,0.77599
0,0,0.767865
0,0,0.804062
0,0,0.775937
0,0,0.774375
0,0,0.772605
0,0,0.777552
0,0,0.807968
0,0,0.774167
0,0,0.767136
0,0,0.773646
0,0,0.814167
2,2,0.775885
2,2,0.771562
2,2,0.780156
0,0,0.818958
0,0,0.772969
0,0,0.77099
0,0,0.76875
0,0,0.804791
0,0,0.772135
0,0,0.778438
0,0,0.774844
2,2,0.780938
2,2,0.832291
0,0,0.766615
0,0,0.774844
0,0,0.774687
0,0,0.808333
0,0,0.840885
0,0,0.770156
0,0,0.767969
0,0,0.809636
0,0,0.767656
0,0,0.765156
0,0,0.774062
0,0,0.803125
0,0,0.768125
2,2,0.765677
0,0,0.769688
0,0,0.822239
0,0,0.782656
0,0,0.774219
0,0,0.771042
0,0,0.769896
0,0,0.806094
0,0,0.780885
2,2,0.770989
0,0,0.768802
0,0,0.84099
0,0,0.772708
0,0,0.770417
0,0,0.766875
0,0,0.80099
0,0,0.771302
0,0,0.76849
0,0,0.772864
0,0,0.793125
0,0,0.77125
0,0,0.804375
0,0,0.766927
0,0,0.772344
0,0,0.802761
0,0,0.778542
0,0,0.785833
0,0,0.78349
0,0,0.828386
0,0,0.776771
0,0,0.770782
0,0,0.777135
0,0,0.800885
0,0,0.773698
1,1,0.774115
0,0,0.775937
0,0,0.840313
3,2,0.775469
0,0,0.772813
2,2,0.771771
2,1,0.763542
0,0,0.812864
0,0,0.772239
0,0,0.77401
0,0,0.77224
0,0,0.826719
0,0,0.784219
0,0,0.768854
0,0,0.775833
0,0,0.796562
0,0,0.780937
0,0,0.803489
0,0,0.771511
0,0,0.798177
0,0,0.767031
2,2,0.778438
0,0,0.772813
0,0,0.778333
0,0,0.803958
0,0,0.770312
0,0,0.767344
0,0,0.775416
0,0,0.824584
0,0,0.780156
0,0,0.774427
0,0,0.768698
2,2,0.807969
0,0,0.768802
0,0,0.774635
0,0,0.765781
0,0,0.81125
0,0,0.771563
0,0,0.765833
2,2,0.772605
0,0,0.7775
0,0,0.823333
0,0,0.771094
2,2,0.775364
0,0,0.768698
0,0,0.809636
0,0,0.769115
1,1,0.812605
2,2,0.771614
0,0,0.808854
0,0,0.783646
0,0,0.768959
0,0,0.771042
0,0,0.824896
0,3,0.776094
0,0,0.778333
0,0,0.769688
0,0,0.771302
2,2,0.812291
0,0,0.769479
0,0,0.777448
0,0,0.7675
0,0,0.799948
0,0,0.76875
0,0,0.771719
0,0,0.768854
0,0,0.806198
0,0,0.775104
0,0,0.773177
0,0,0.780521
0,0,0.807292
0,0,0.77151
0,0,0.767552
0,0,0.773125
0,0,0.770886
0,0,0.812396
0,0,0.777031
2,2,0.813021
0,0,0.770678
0,0,0.839062
0,0,0.772292
0,0,0.767813
0,0,0.781718
0,0,0.805
0,0,0.779636
0,0,0.769062
0,0,0.77875
0,0,0.80349
2,2,0.787865
0,0,0.776615
0,0,0.770469
0,0,0.775104
2,2,0.809791
0,0,0.77177
0,0,0.775052
0,0,0.782083
0,0,0.82276
0,0,0.773646
0,0,0.780781
0,0,0.767708
0,0,0.810521
0,0,0.773125
0,0,0.766354
0,0,0.767864
0,0,0.834792
1,1,0.776354
0,0,0.827344
2,2,0.769532
0,0,0.82
0,0,0.772396
0,0,0.777292
0,0,0.768438
0,0,0.76974
0,0,0.80474
0,0,0.769739
0,0,0.768593
0,0,0.771563
0,0,0.800417
0,0,0.769896
0,0,0.770313
2,2,0.765937
2,2,0.807239
0,0,0.766459
3,3,0.767657
0,0,0.833021
0,0,0.811094
0,0,0.785
0,0,0.77125
0,0,0.773177
1,0,0.834895
0,0,0.772396
2,2,0.771823
0,0,0.770209
0,0,0.809792
0,0,0.770677
0,0,0.78276
0,0,0.822396
0,0,0.938333
0,0,0.787396
0,0,0.785677
0,0,0.771459
0,0,0.784167
0,0,0.804479
0,0,0.782968
0,0,0.773594
0,0,0.770416
2,2,0.820625
0,0,0.76823
0,0,0.767708
0,0,0.77099
0,0,0.798073
0,0,0.766093
2,2,0.773385
0,0,0.767083
0,0,0.817448
0,0,0.777136
0,0,0.773802
0,0,0.772604
0,0,0.777812
0,0,0.826562
0,0,0.774792
0,0,0.769219
0,0,0.770573
0,0,0.795886
0,0,0.769687
1,1,0.784791
0,0,0.838906
0,0,0.800625
0,0,0.769636
1,1,0.771876
0,0,0.78875
0,0,0.810833
0,0,0.777396
0,0,0.776146
0,0,0.771094
0,0,0.769323
0,0,0.800677
0,0,0.770521
1,1,0.768177
0,0,0.790052
0,0,0.833489
0,0,0.769687
0,0,0.770833
0,0,0.768542
0,0,0.821823
0,0,0.783229
2,2,0.772188
0,0,0.773959
3,3,0.799792
0,0,0.771979
0,0,0.773281
0,0,0.773542
0,0,0.769375
0,0,0.824114
0,0,0.766042
0,0,0.768073
0,0,0.816615
0,0,0.804323
0,0,0.778437
0,0,0.778907
0,0,0.766875
0,0,0.790261
0,0,0.769427
0,0,0.774636
0,0,0.769271
0,0,0.811198
0,0,0.778178
0,0,0.773334
0,0,0.771875
0,0,0.768542
0,0,0.799271
0,0,0.772969
1,1,0.772188
0,1,0.785313
0,0,0.811355
0,0,0.77474
0,0,0.770729
0,0,0.778021
0,0,0.79474
0,0,0.765521
0,0,0.774166
2,2,0.771146
0,0,0.819219
0,0,0.761979
0,0,0.774896
0,0,0.771042
0,0,0.822657
3,3,0.852969
0,0,0.776927
1,1,0.775209
0,0,0.773542
2,2,0.820156
0,0,0.778125
0,0,0.779635
0,0,0.769792
0,0,0.866251
1,1,0.767917
0,1,0.772604
0,0,0.768021
0,0,0.791562
2,2,0.77349
0,0,0.767188
0,0,0.784531
0,0,0.800208
0,0,0.785157
0,0,0.774114
0,0,0.771511
0,0,0.773281
0,0,0.83276
0,0,0.768594
2,2,0.765364
0,0,0.769636
0,0,0.799479
0,0,0.757136
0,0,0.770052
0,0,0.825
0,0,0.835104
0,0,0.771146
0,0,0.770521
0,0,0.763959
0,0,0.805208
0,0,0.773541
0,0,0.768594
0,0,0.770052
1,1,0.76474
0,0,0.819532
0,0,0.766354
0,0,0.77125
2,2,0.78776
0,0,0.791667
0,0,0.769792
0,0,0.766771
0,0,0.765469
0,0,0.796406
0,0,0.767553
0,0,0.763646
0,0,0.768594
0,0,0.767292
0,1,0.795053
0,0,0.766251
0,0,0.766198
2,2,0.789271
0,0,0.840834
2,2,0.775364
0,0,0.764896
1,1,0.806354
0,0,0.815468
0,0,0.76776
0,0,0.768594
0,0,0.766198
0,0,0.792813
0,0,0.778542
0,0,0.765625
2,2,0.768646
2,2,0.768803
0,0,0.801354
0,0,0.771875
0,0,0.78375
0,0,0.769323
0,0,0.824427
0,0,0.768958
0,0,0.769948
0,0,0.77625
0,0,0.805886
0,0,0.77224
0,0,0.769844
0,0,0.767396
0,0,0.81375
0,0,0.777136
2,2,0.782187
0,0,0.773489
0,0,0.785885
0,0,0.818229
0,0,0.769114
0,0,0.771979
0,0,0.833334
0,0,0.804323
0,0,0.781407
0,0,0.785833
0,0,0.773281
0,0,0.81224
0,0,0.776406
0,0,0.772657
2,2,0.770157
0,0,0.806771
2,2,0.773438
0,0,0.780468
0,0,0.774688
0,0,0.785052
0,0,0.783958
1,0,0.779791
0,0,0.769219
2,0,0.770625
1,1,0.827917
0,0,0.773646
0,0,0.771198
0,0,0.772761
0,0,0.809948
0,0,0.768281
0,0,0.767395
0,0,0.781303
2,2,0.805312
0,0,0.772083
0,0,0.775678
0,0,0.770417
0,0,0.834115
0,0,0.770677
0,0,0.775052
0,0,0.794114
0,0,0.787031
2,0,0.821042
0,0,0.778021
0,0,0.788281
0,0,0.768698
2,2,0.790416
0,0,0.770261
0,0,0.774062
0,0,0.772656
0,0,0.811562
0,0,0.772343
0,0,0.771927
0,0,0.777032
0,0,0.804427
0,0,0.768907
0,0,0.767812
0,0,0.767864
0,0,0.768594
0,0,0.794635
3,3,0.771615
0,0,0.766563
0,0,0.775052
0,0,0.800208
0,0,0.784167
0,0,0.767083
1,1,0.778437
0,0,0.869739
1,1,0.771198
0,0,0.779375
0,0,0.776094
0,0,0.826406
0,0,0.769739
0,0,0.777083
0,1,0.771927
0,0,0.81625
0,0,0.833802
0,0,0.770156
0,0,0.785104
0,0,0.776302
0,1,0.809167
0,0,0.768073
1,1,0.765989
0,0,0.767916
0,0,0.83151
0,0,0.774635
0,0,0.769115
0,0,0.773907
0,0,0.78875
0,0,0.78
2,2,0.767761
0,0,0.767135
0,0,0.781511
0,0,0.826459
0,0,0.767969
0,0,0.768334
0,0,1.015729
0,0,0.808646
0,0,0.76474
0,0,0.772136
0,0,0.767396
0,0,0.822344
0,0,0.778438
2,2,0.773125
0,0,0.772761
0,0,0.829896
0,0,0.774636
0,0,0.779948
0,0,0.771979
0,0,0.795365
0,0,0.772605
0,0,0.771771
0,0,0.775468
0,0,0.774218
0,1,0.791771
0,0,0.765573
0,0,0.769896
0,0,0.775469
0,0,0.80948
1,1,0.78375
0,0,0.785105
0,0,0.771302
0,0,0.824792
0,0,0.779427
0,0,0.768958
0,0,0.777083
0,0,0.884219
0,0,0.772344
0,0,0.771042
0,0,0.773751
0,0,0.819375
0,0,0.775626
0,0,0.763178
0,0,0.769948
0,0,0.768698
0,0,0.799531
0,0,0.77625
0,0,0.775834
2,2,0.775261
0,0,0.808021
0,0,0.768438
0,0,0.773229
0,0,0.774948
0,0,0.806927
0,0,0.778385
0,0,0.772344
2,2,0.773541
0,0,0.805104
0,0,0.768073
0,0,0.769791
0,0,0.776146
0,0,0.783751
0,0,0.832708
0,0,0.77875
0,0,0.769532
0,0,0.767084
0,0,0.859115
0,0,0.774323
0,0,0.782031
0,0,0.77375
0,0,0.811406
0,0,0.767865
0,0,0.7775
0,0,0.775312
0,0,0.800208
0,0,0.769063
0,0,0.769531
0,0,0.778855
0,0,0.767187
0,1,0.836302
0,0,0.77474
0,0,0.776771
0,0,0.768021
0,0,0.800157
0,0,0.765782
0,0,0.766823
1,1,0.768021
0,0,0.849948
0,0,0.770885
0,0,0.770209
0,0,0.766302
0,0,0.808073
0,0,0.768906
2,2,0.767761
0,0,0.772448
0,0,0.773594
0,0,0.843802
0,0,0.76625
0,0,0.767604
0,0,0.769584
0,0,0.813489
0,0,0.775261
0,0,0.773386
0,0,0.767813
0,0,0.810469
0,0,0.769688
0,0,0.775417
2,2,0.774063
0,0,0.805365
0,0,0.778438
0,0,0.776458
0,0,0.774791
0,0,0.772448
0,0,0.837865
0,0,0.772969
0,0,0.788073
0,0,0.773125
0,0,0.811718
0,0,0.782291
0,0,0.77151
0,0,0.77474
0,0,0.826875
0,0,0.779687
0,0,0.772084
0,0,0.77224
0,0,0.810364
0,0,0.832552
0,0,0.77875
0,0,0.770625
0,0,0.81823
0,0,0.78276
0,0,0.773698
0,0,0.773959
0,0,0.775625
1,1,0.814115
0,0,0.769844
0,0,0.775781
0,0,0.773177
3,3,0.82625
0,0,0.770521
0,0,0.77302
0,0,0.769271
0,0,0.809583
0,0,0.775313
0,0,0.791042
0,0,0.772344
0,0,0.836719
0,0,0.772865
0,0,0.768438
0,0,0.777084
0,0,0.775729
0,0,0.789479
0,0,0.779688
0,0,0.770521
0,0,0.772656
0,0,0.807604
0,0,0.811458
0,0,0.771093
0,1,0.768698
0,0,0.80448
0,0,0.770416
0,0,0.769739
0,0,0.770313
0,0,0.824323
0,0,0.775365
0,0,0.771042
2,0,0.765469
0,0,0.766458
2,2,0.809323
0,0,0.774219
0,0,0.774323
0,0,0.770677
0,0,0.789636
0,0,0.772344
0,0,0.776979
0,0,0.766563
0,0,0.818229
0,0,0.771927
0,0,0.768073
0,0,0.769896
2,2,0.799115
0,0,0.769636
0,0,0.766927
0,0,0.767656
0,0,0.774792
0,0,0.869635
0,0,0.771927
0,0,0.769844
0,0,0.771563
1,1,0.823229
0,0,0.768125
0,0,0.770105
0,0,0.766354
0,0,0.81776
0,0,0.762708
0,0,0.769115
0,0,0.766875
0,0,0.823021
0,0,0.769479
0,0,0.764584
0,0,0.764844
0,0,0.765104
0,0,0.8
0,0,0.773229
0,0,0.786719
0,0,0.768177
2,2,0.807968
0,0,0.771302
0,0,0.767136
0,0,0.765156
0,0,0.800105
0,0,0.772396
0,0,0.765052
0,0,0.778646
0,0,0.766094
0,0,0.880886
0,0,0.772396
0,0,0.779948
2,2,0.776459
0,0,0.848437
0,0,0.777448
0,0,0.771094
0,0,0.775521
0,0,0.80599
0,0,0.776302
3,3,0.77026
0,0,0.767291
0,0,0.794739
0,0,0.77125
0,0,0.771979
0,0,0.775885
0,0,0.825625
0,0,0.767187
0,0,0.78474
0,0,0.771302
0,0,0.769271
0,0,0.809479
0,0,0.771093
2,2,0.774218
0,0,0.769583
0,0,0.83375
0,0,0.775781
0,0,0.767239
2,2,0.775104
0,0,0.867501
0,0,0.820104
0,0,0.76625
0,0,0.767083
0,0,0.836615
0,0,0.770938
0,0,0.777604
2,2,0.775312
0,0,0.805573
0,0,0.771198
0,0,0.768125
0,0,0.766979
0,0,0.775938
0,0,0.815052
0,0,0.773594
0,0,0.776563
0,0,0.770938
0,0,0.809688
0,0,0.78
0,0,0.776927
0,0,0.765573
0,0,0.825625
0,0,0.776146
0,0,0.773178
0,0,0.766458
2,2,0.807709
0,0,0.775417
0,0,0.782187
0,0,0.779011
0,0,0.769115
0,0,0.798802
0,0,0.803698
0,0,0.77599
0,0,0.779115
0,0,0.796459
0,0,0.781615
0,0,0.771979
0,0,0.770677
0,0,0.816511
0,0,0.771667
3,3,0.769115
0,0,0.772605
0,0,0.795312
2,2,0.774635
2,2,0.790208
0,0,0.769479
0,0,0.767448
0,0,0.826719
0,0,0.770417
0,0,0.770834
0,0,0.769688
0,0,0.81974
0,1,0.772813
0,0,0.774167
0,0,0.772187
0,0,0.800469
0,0,0.772553
0,0,0.771355
2,2,0.775416
0,0,0.814323
2,2,0.773021
0,0,0.814479
0,0,0.776355
0,0,0.768437
0,0,0.824062
0,0,0.774948
0,0,0.771146
0,0,0.771719
0,0,0.805781
0,0,0.774115
2,2,0.771146
0,0,0.774063
0,0,0.825781
0,0,0.777656
0,0,0.770521
0,0,0.781406
2,2,0.830521
0,1,0.776511
0,0,0.761458
0,0,0.77302
0,0,0.764896
0,0,0.816823
0,0,0.772136
0,0,0.779062
0,0,0.769375
0,0,0.792344
0,0,0.771354
0,0,0.772448
0,0,0.77901
0,0,0.802343
0,0,0.828958
0,0,0.781198
0,0,0.77448
0,0,0.792709
0,0,0.776615
0,0,0.775261
0,0,0.76901
0,0,0.777708
0,0,0.825521
0,0,0.769636
0,1,0.767917
0,0,0.769115
0,0,0.82
2,2,0.769688
3,0,0.760885
1,1,0.767657
0,0,0.793854
0,0,0.769479
0,0,0.770104
0,0,0.775001
0,0,0.812448
0,0,0.769688
0,0,0.769531
0,0,0.769323
2,2,0.774584
0,0,0.814948
0,0,0.775625
0,0,0.782605
0,0,0.771302
0,0,0.801876
0,0,0.812864
0,0,0.767553
2,2,0.766771
0,0,0.820313
2,2,0.77875
0,0,0.775365
1,1,0.77849
1,0,0.83099
0,0,0.776719
2,2,0.770729
0,0,0.771458
2,2,0.787136
0,0,0.825312
0,0,0.773698
1,1,0.772657
0,0,0.76776
0,0,0.820105
0,0,0.764636
0,0,0.770052
0,0,0.767813
0,0,0.804844
0,0,0.768698
0,0,0.765938
0,0,0.772865
0,0,0.804792
0,0,0.767708
0,0,0.770104
0,0,0.768125
0,0,0.775156
0,0,0.835156
0,0,0.817657
0,0,0.77375
0,0,0.774219
0,0,0.818906
0,0,0.769323
0,0,0.773698
2,2,0.773958
0,0,0.802552
0,0,0.771355
0,0,0.769375
0,0,0.772188
0,0,0.790469
0,0,0.775989
0,0,0.784739
0,0,0.76948
2,2,0.774271
0,0,0.803646
0,0,0.771406
0,0,0.770365
0,0,0.775885
0,0,0.794219
0,0,0.771719
0,0,0.782604
0,0,0.777761
0,0,0.822448
0,0,0.774427
0,0,0.776094
0,0,0.782604
0,0,0.818698
2,2,0.779219
0,0,0.825625
0,0,0.77099
0,0,0.807292
0,0,0.772552
0,0,0.771875
0,0,0.778958
0,0,0.772657
0,0,0.812604
0,0,0.776146
1,1,0.770313
2,2,0.768438
0,0,0.805
0,0,0.788855
0,0,0.771354
0,0,0.774323
0,0,0.805781
0,0,0.767657
0,0,0.766198
0,0,0.769844
0,0,0.772292
0,0,0.811719
0,0,0.777761
0,0,0.769531
0,0,0.769688
0,0,0.802656
0,0,0.765521
0,0,0.780052
0,0,0.773854
0,0,0.818125
0,1,0.766927
0,0,0.818125
0,0,0.771094
0,0,0.793854
0,0,0.773177
0,0,0.774739
0,0,0.77073
0,0,0.776146
0,0,0.805365
0,0,0.77177
0,0,0.773073
0,0,0.780468
0,0,0.849844
0,0,0.784739
0,0,0.771145
0,0,0.768906
0,0,0.833594
0,0,0.783959
0,0,0.780834
0,0,0.770833
0,0,0.809948
0,0,0.771823
0,0,0.768802
0,0,0.768854
0,0,0.799896
0,0,0.772032
0,0,0.779948
0,0,0.767916
0,0,0.767552
0,0,0.793646
1,1,0.769896
0,0,0.831094
0,0,0.769687
1,1,0.809062
0,0,0.770781
0,0,0.768073
0,0,0.770209
0,0,0.803281
0,0,0.775833
0,0,0.766302
0,0,0.776979
0,0,0.828437
0,0,0.772761
0,0,0.776667
1,1,0.775052
0,0,0.780157
0,0,0.813021
0,0,0.770417
0,0,0.776511
0,0,0.771667
0,0,0.827969
0,0,0.767135
0,0,0.78
0,0,0.774843
0,0,0.807292
0,0,0.785156
0,0,0.771459
0,0,0.77901
0,0,0.828125
0,0,0.769219
0,0,0.819427
0,0,0.775677
0,0,0.767865
0,0,0.81526
0,0,0.772136
0,0,0.77698
0,0,0.777344
0,0,0.819584
0,0,0.769271
0,0,0.765573
1,0,0.764635
0,0,0.809792
0,0,0.771354
0,0,0.774688
0,0,0.771563
2,2,0.804532
0,0,0.770885
0,0,0.772709
0,0,0.770782
0,0,0.779584
1,1,0.793229
0,0,0.789323
0,0,0.769531
0,0,0.760885
0,0,0.824219
0,0,0.771355
0,0,0.775833
0,0,0.772969
0,0,0.797291
0,0,0.773281
0,0,0.831614
0,0,0.768073
0,0,0.823229
0,0,0.780157
0,0,0.772604
0,0,0.778907
0,0,0.770156
2,2,0.819375
0,0,0.767604
0,0,0.775573
0,0,0.763073
2,2,0.805
2,2,0.772136
0,0,0.779011
0,0,0.763958
0,0,0.808959
0,0,0.779271
0,0,0.771979
0,0,0.774375
0,0,0.815261
0,0,0.791823
0,0,0.771979
0,0,0.774218
0,0,0.771927
0,0,0.799427
0,0,0.771042
0,0,0.775729
0,0,0.769791
0,0,0.839688
0,0,0.770209
2,2,0.826615
0,0,0.768229
0,0,0.829428
0,0,0.773073
0,0,0.778802
0,0,0.767448
0,0,0.804323
0,0,0.77427
0,0,0.76802
0,0,0.770208
0,0,0.792448
0,0,0.768334
0,0,0.774532
0,2,0.774011
0,0,0.767292
0,0,0.806927
0,0,0.774375
0,0,0.769843
0,0,0.767239
0,0,0.798282
0,0,0.772812
0,0,0.768855
0,0,0.774688
2,2,0.80875
0,0,0.771823
0,0,0.768542
0,0,0.769167
0,0,0.773385
0,0,0.798854
0,0,0.771667
0,0,0.804219
0,0,0.768021
0,0,0.788594
0,0,0.76599
0,0,0.770573
0,0,0.771615
0,0,0.799479
0,0,0.777552
0,0,0.777396
0,0,0.774375
0,0,0.871615
0,0,0.771302
0,0,0.771771
0,0,0.766718
0,0,0.769792
0,0,0.794635
0,0,0.771198
0,0,0.772344
0,0,0.771355
0,0,0.833229
0,0,0.788854
0,0,0.76625
0,0,0.770625
0,0,0.803906
0,0,0.772969
0,0,0.770208
0,0,0.763854
0,0,0.799844
0,3,0.765417
0,0,0.76625
0,0,0.802917
0,0,0.776459
0,0,0.78625
0,0,0.767656
0,0,0.765781
0,0,0.773958
0,0,0.813645
2,2,0.770885
0,0,0.783855
0,0,0.770156
0,0,0.805573
0,0,0.775001
0,0,0.7725
0,0,0.775365
0,0,0.826667
0,0,0.780313
0,0,0.77099
0,0,0.769167
0,0,0.770052
0,0,0.817344
0,0,0.768281
0,0,0.77323
2,2,0.780573
1,1,0.803229
0,0,0.76849
0,0,0.767187
0,0,0.776771
0,0,0.799635
0,0,0.781614
0,0,0.826407
0,0,0.767396
0,0,0.810209
0,0,0.764948
0,0,0.769427
0,0,0.778958
0,0,0.780833
0,0,0.793021
0,0,0.770729
0,0,0.771823
0,0,0.775989
2,2,0.82974
0,0,0.784896
0,0,0.778282
0,0,0.773021
2,2,0.814115
0,0,0.779428
1,1,0.778542
0,0,0.771302
0,0,0.804896
0,0,0.769635
0,0,0.765781
0,0,0.769063
0,0,0.766406
0,0,0.798906
0,0,0.767187
1,1,0.768594
0,0,0.775677
0,0,0.806146
0,0,0.772709
0,0,0.806927
0,0,0.768282
0,0,0.797031
0,0,0.776302
0,0,0.772031
0,0,0.769167
0,0,0.803541
0,0,0.772916
0,0,0.769635
0,0,0.777604
0,0,0.779844
0,0,0.805834
0,0,0.772135
0,0,0.778334
0,0,0.771719
0,0,0.820104
0,0,0.781875
0,0,0.790104
3,3,0.770261
0,0,0.810833
0,0,0.782239
0,0,0.773333
0,0,0.769166
0,0,0.812344
0,0,0.769427
0,0,0.767865
0,0,0.767135
0,0,0.769584
0,0,0.794792
0,0,0.77599
0,0,0.804844
0,0,0.770625
0,0,0.826771
0,0,0.774062
0,0,0.794792
0,0,0.76948
2,2,0.82474
0,0,0.771458
0,0,0.765573
0,0,0.766511
0,0,0.78875
0,0,0.766458
0,0,0.767604
0,0,0.768333
0,0,0.789948
1,1,0.888646
0,0,0.769375
0,0,0.771354
0,0,0.808177
0,0,0.769062
0,0,0.776354
0,0,0.772501
0,0,0.766823
0,0,0.813125
0,0,0.786355
0,0,0.768698
0,0,0.771875
0,0,0.832396
0,0,0.780313
0,0,0.77349
0,0,0.825885
0,0,0.802135
0,0,0.771406
0,0,0.771355
0,0,0.780938
0,0,0.835885
0,0,0.772292
0,0,0.768646
0,0,0.782188
0,0,0.77
0,0,0.807136
0,0,0.780312
0,0,0.772552
0,0,0.773334
0,0,0.808438
0,0,0.769271
0,0,0.767135
0,0,0.767188
0,0,0.810677
0,0,0.781198
0,0,0.773333
0,0,0.771406
0,0,0.826875
1,1,0.786823
0,0,0.771042
0,0,0.777032
0,0,0.76599
0,0,0.777604
0,0,0.772292
0,0,0.7775
0,0,0.822448
0,0,0.836771
0,0,0.781094
0,0,0.767761
0,0,0.766198
0,0,0.795261
0,0,0.770208
2,2,0.781354
0,1,0.768646
0,0,0.819271
0,0,0.774948
0,0,0.770261
0,0,0.768646
0,0,0.795157
2,2,0.770833
0,0,0.775
0,0,0.768073
0,0,0.767865
0,0,0.81974
0,0,0.766303
0,0,0.769844
0,0,0.769531
0,0,0.825521
0,0,0.773646
0,0,0.775417
0,0,0.775209
0,0,0.802917
0,0,0.769688
0,0,0.771667
0,0,0.839375
0,0,0.816563
0,0,0.771198
0,0,0.774531
0,0,0.769636
0,0,0.773125
0,0,0.818177
0,0,0.77349
0,0,0.77125
0,0,0.768178
2,2,0.797761
0,0,0.768438
0,0,0.775052
0,0,0.771927
0,0,0.84875
0,0,0.769323
1,2,0.766511
2,0,0.768073
0,0,0.806406
2,2,0.774532
0,0,0.769271
0,0,0.768646
0,0,0.766563
0,0,0.816875
0,0,0.76875
0,0,0.772344
0,0,0.773855
0,0,0.792188
1,0,0.777135
0,0,0.765938
0,0,0.808906
0,0,0.810416
0,0,0.776615
2,2,0.767865
0,0,0.776563
0,0,0.805209
0,0,0.770313
0,0,0.769271
0,0,0.774635
0,0,0.771093
0,0,0.816875
0,0,0.774062
0,0,0.783958
0,0,0.798593
0,0,0.829375
1,1,0.781093
0,0,0.769687
0,0,0.768385
0,0,0.807969
0,0,0.771927
0,0,0.76875
0,0,0.767136
0,0,0.78125
0,0,0.764166
0,0,0.774375
0,0,0.772188
0,0,0.771614
0,0,0.830312
0,0,0.772448
0,0,0.768489
0,0,0.836146
0,0,0.802969
0,0,0.774896
0,0,0.766458
0,0,0.771771
0,0,0.826615
0,0,0.77177
0,0,0.766198
0,0,0.773646
0,0,0.854375
0,0,0.772239
0,0,0.773021
0,0,0.776458
0,0,0.769218
0,0,0.815
0,0,0.775521
1,1,0.771146
0,0,0.772136
0,0,0.808021
0,0,0.770313
0,0,0.768281
0,0,0.769948
0,0,0.816198
0,0,0.775937
0,0,0.774218
0,0,0.772291
0,0,0.810781
0,0,0.769115
0,0,0.769219
0,0,0.769063
0,1,0.815
2,2,0.834167
0,0,0.769011
0,0,0.77099
2,2,0.768646
0,0,0.811407
0,0,0.770365
0,0,0.76823
0,0,0.765052
0,0,0.797448
0,0,0.76474
0,0,0.775261
0,0,0.766198
0,0,0.794792
0,0,0.76974
0,0,0.76724
0,0,0.765
1,1,0.769896
0,0,0.825365
0,0,0.77875
0,0,0.775208
0,0,0.768594
0,0,0.791979
0,0,0.76901
0,0,0.769166
0,0,0.781614
0,0,0.821354
0,0,0.770833
0,0,0.774791
0,0,0.773646
0,0,0.854167
0,0,0.773958
0,0,0.7725
0,0,0.785208
0,0,0.774375
0,0,0.797448
0,0,0.769219
0,0,0.773542
0,0,0.773542
0,0,0.808958
0,0,0.786198
0,0,0.769531
0,0,0.769583
0,0,0.806823
0,0,0.76802
0,0,0.77375
0,0,0.770937
0,0,0.792552
0,0,0.76625
0,0,0.778282
0,0,0.794114
0,0,0.772865
0,0,0.835365
0,0,0.780781
0,0,0.781511
0,0,0.784011
0,0,0.825052
0,0,0.771771
0,0,0.772136
0,0,0.770469
2,2,0.869895
0,0,0.774427
0,0,0.773542
0,0,0.773281
0,0,0.793959
0,0,0.780157
0,0,0.768906
0,0,0.774063
0,0,0.814531
0,0,0.771719
0,0,0.771458
0,0,0.768125
0,0,0.769531
0,0,0.806511
0,0,0.77198
0,0,0.769844
0,0,0.771042
0,0,0.844166
0,0,0.768177
0,0,0.769479
0,0,0.76625
0,0,0.807135
2,2,0.770937
0,0,0.776563
0,0,0.771042
0,0,0.80526
0,0,0.780625
0,0,0.774635
0,0,0.770625
0,0,0.815625
0,0,0.806823
0,0,0.774896
0,0,0.778646
0,0,0.774167
0,1,0.817969
0,0,0.770052
0,0,0.770729
0,0,0.786823
0,1,0.814896
0,0,0.771667
0,0,0.774843
0,0,0.780521
0,0,0.840521
0,0,0.770521
0,0,0.771823
0,0,0.772864
2,2,0.77125
0,0,0.821198
0,0,0.780677
0,0,0.771406
0,0,0.769166
0,0,0.821927
0,0,0.785052
0,0,0.767448
0,0,0.785885
0,0,0.798177
0,0,0.767032
0,0,0.769011
0,0,0.770364
0,0,0.859739
0,0,0.768489
0,0,0.771302
0,0,0.770417
0,0,0.766042
0,0,0.805573
0,0,0.771615
0,0,0.776562
0,0,0.76823
2,2,0.821042
0,0,0.768489
0,0,0.765781
0,0,0.768854
0,0,0.807188
0,0,0.767553
0,0,0.765364
0,0,0.770833
0,0,0.795938
2,2,0.771719
0,0,0.764739
0,0,0.765729
0,0,0.763907
0,0,0.807865
0,0,0.776459
0,0,0.772969
2,2,0.77
3,3,0.797031
0,0,0.77375
0,0,0.77776
0,0,0.773177
0,0,0.854062
0,0,0.770885
0,0,0.767031
0,0,0.768385
0,0,0.826407
0,0,0.769948
0,0,0.776146
2,2,0.769427
2,2,0.768906
0,0,0.822136
0,0,0.76724
0,0,0.768073
0,0,0.76724
0,0,0.795833
0,0,0.771458
1,1,0.765625
0,0,0.765677
0,0,0.80448
0,0,0.767552
3,3,0.766823
2,2,0.765208
0,0,0.772032
0,0,0.797969
0,0,0.766771
0,0,0.767917
0,0,0.765989
2,2,0.804115
0,0,0.775937
0,0,0.773021
0,0,0.767709
0,0,0.860104
0,0,0.777708
0,0,0.771458
0,0,0.772761
0,0,0.805573
0,0,0.774635
0,0,0.770001
0,0,0.771459
0,0,0.769843
0,0,0.807708
0,0,0.767292
0,0,0.777239
0,0,0.770573
0,0,0.855416
0,0,0.771927
0,0,0.775521
0,0,0.786563
0,0,0.862292
0,0,0.794479
2,0,0.780886
0,0,0.771146
0,0,0.825886
0,0,0.76875
0,0,0.771771
0,0,0.774531
0,0,0.834948
0,0,0.770989
2,2,0.77224
0,0,0.77875
0,0,0.772656
0,0,0.878073
0,0,0.775261
0,0,0.774688
0,0,0.775469
1,1,0.800937
0,0,0.770469
0,0,0.774219
0,0,0.775365
0,0,0.805886
0,0,0.775052
0,0,0.777448
0,0,0.768646
0,0,0.815782
0,0,0.776094
0,0,0.769792
0,0,0.773177
0,0,0.768541
0,0,0.785781
0,0,0.769844
2,2,0.770052
0,0,0.773646
0,0,0.82073
0,0,0.770365
0,0,0.767292
0,0,0.769583
0,0,0.806302
0,0,0.769844
0,0,0.763802
0,0,0.776041
1,1,0.844791
0,0,0.767344
0,0,0.769062
0,0,0.768334
0,0,0.769479
2,2,0.799063
0,0,0.780781
0,0,0.767968
0,0,0.773021
0,0,0.823698
0,0,0.783333
0,0,0.768542
0,0,0.771928
2,2,0.817292
0,0,0.769427
0,0,0.771614
0,0,0.772709
0,0,0.824114
0,0,0.769063
0,0,0.771198
0,0,0.774271
0,0,0.770625
0,0,0.795573
0,0,0.777135
0,0,0.777084
2,2,0.772604
0,0,0.787239
0,0,0.772188
0,0,0.77448
0,0,0.779115
0,0,0.836823
0,0,0.778177
0,0,0.77224
0,0,0.774948
0,0,0.818021
0,0,0.776198
0,0,0.775729
0,0,0.767239
0,0,0.765937
0,0,0.801718
0,0,0.768854
0,0,0.7725
0,0,0.772031
0,0,0.830261
0,0,0.777031
0,0,0.77125
0,0,0.769896
0,0,0.814687
0,0,0.773594
0,0,0.772292
0,0,0.769896
0,0,0.80349
0,0,0.770521
0,0,0.780677
0,0,0.791927
0,0,0.779532
0,0,0.827448
0,0,0.774427
0,0,0.769688
0,0,0.773177
1,1,0.875886
0,0,0.768959
0,0,0.77
0,0,0.765937
3,3,0.790938
0,0,0.765209
0,0,0.767291
0,0,0.764843
0,0,0.851771
0,0,0.773958
0,0,0.778542
0,0,0.766667
0,0,0.822344
0,0,0.767917
0,0,0.768438
0,0,0.782083
0,0,0.768541
0,0,0.811719
0,0,0.769896
2,2,0.76599
0,0,0.765469
0,0,0.791771
0,0,0.775521
0,0,0.765052
0,0,0.766667
0,0,0.804896
0,0,0.76625
0,0,0.761719
0,0,0.776927
0,0,0.766667
0,0,0.866979
0,0,0.778646
0,0,0.774062
0,0,0.771458
0,0,0.846302
0,0,0.786198
0,0,0.772656
0,0,0.771459
2,2,0.809323
0,0,0.768021
0,0,0.766458
0,0,0.778542
0,0,0.812761
0,0,0.774792
0,0,0.776042
0,0,0.775886
0,0,0.812917
2,2,0.77974
2,2,0.781459
1,1,0.779948
0,0,0.774376
2,2,0.829531
0,0,0.771562
0,0,0.770781
0,0,0.777136
0,0,0.801198
0,0,0.778281
0,0,0.765
0,0,0.765261
0,0,0.839791
0,0,0.808594
0,0,0.769115
0,0,0.764218
0,0,0.802031
0,0,0.764375
0,0,0.765365
0,0,0.764428
0,0,0.768906
1,1,0.806042
2,2,0.771146
0,0,0.764792
0,0,0.764635
0,0,0.803645
0,0,0.780468
0,0,0.768229
0,0,0.767292
0,0,0.814584
0,0,0.763698
0,0,0.764479
0,0,0.764323
0,0,0.767969
0,0,0.767135
0,0,0.767656
0,0,0.770886
0,0,0.763385
0,0,0.815261
2,2,0.765833
0,0,0.768073
2,2,0.772187
0,0,0.794687
0,0,0.802344
0,0,0.77599
0,0,0.774532
0,0,0.803229
0,0,0.778698
0,0,0.784688
2,2,0.776875
0,0,0.783333
0,0,0.790729
1,1,0.773646
0,0,0.772917
0,0,0.771354
0,0,0.832656
0,0,0.765
0,0,0.771354
2,2,0.767917
2,2,0.802865
0,0,0.765
2,2,0.766666
0,0,0.766511
0,0,0.825052
0,0,0.774167
0,0,0.768698
0,0,0.7775
0,0,0.772812
0,0,0.815938
0,0,0.765834
0,0,0.777135
0,0,0.768646
0,0,0.866666
3,3,0.771719
0,0,0.766354
0,0,0.764687
0,0,0.807396
0,0,0.770989
0,0,0.767292
0,0,0.776094
0,0,0.803177
2,2,0.774219
0,0,0.770521
0,0,0.773489
0,0,0.774167
0,0,0.794167
0,0,0.771667
2,2,0.769323
1,1,0.771458
0,0,0.830937
0,0,0.765521
0,0,0.781979
0,1,0.784583
0,0,0.815677
0,0,0.772552
0,0,0.773229
0,0,0.771041
0,0,0.813438
0,0,0.776198
0,0,0.773334
0,0,0.776667
0,0,0.775521
0,0,0.860989
0,0,0.776407
0,0,0.769167
0,0,0.784323
2,2,0.824688
0,0,0.77625
0,0,0.765677
0,0,0.771927
0,0,0.804688
0,0,0.777084
0,0,0.769115
0,0,0.770364
2,2,0.83625
0,0,0.775104
0,0,0.773542
0,0,0.769428
0,0,0.812708
3,3,0.784271
0,0,0.763906
0,0,0.769219
0,0,0.76724
0,0,0.803125
0,0,0.768177
0,0,0.772917
0,0,0.76901
0,3,0.787864
0,0,0.773386
0,0,0.768594
0,0,0.768698
0,0,0.813177
2,2,0.81651
0,0,0.776406
0,0,0.777656
0,0,0.80125
0,0,0.76823
2,2,0.76901
0,0,0.77052
0,0,0.772813
0,0,0.835313
0,0,0.783282
0,0,0.769375
0,0,0.773385
2,2,0.844948
0,0,0.777865
0,0,0.772604
0,3,0.780625
0,0,0.829062
0,0,0.768021
0,0,0.769115
0,0,0.774792
0,0,0.801563
0,0,0.77224
0,0,0.768177
0,0,0.78125
0,0,0.765521
0,0,0.817292
0,0,0.768125
0,0,0.770261
0,0,0.769844
0,0,0.810417
0,0,0.817135
0,0,0.779063
0,0,0.778907
1,1,0.828021
0,0,0.775417
0,0,0.774792
0,0,0.764323
0,0,0.809896
0,0,0.772083
0,0,0.770885
0,0,0.772813
0,0,0.775104
0,0,0.832552
2,2,0.770573
0,0,0.773177
0,0,0.786771
0,0,0.816406
0,0,0.784323
0,0,0.777917
0,0,0.767448
0,0,0.812135
0,0,0.770156
0,0,0.765416
0,0,0.78276
0,0,0.795104
0,0,0.773907
0,0,0.766614
0,0,0.776093
0,0,0.78
0,0,0.843281
0,0,0.820104
0,0,0.771093
0,0,0.775052
0,0,0.81849
2,2,0.776354
0,0,0.764844
0,0,0.768125
0,0,0.798646
0,0,0.775261
0,0,0.764115
0,0,0.774323
0,0,0.807917
0,0,0.765937
0,0,0.776094
0,0,0.777656
0,0,0.816823
0,0,0.78099
2,2,0.768542
0,0,0.77
0,0,0.776928
0,0,0.809896
0,0,0.772656
0,0,0.779063
0,0,0.770573
0,0,0.829531
0,0,0.771823
0,0,0.771875
0,0,0.771562
0,0,0.818489
0,0,0.821354
0,0,0.776094
0,0,0.772031
0,0,0.809895
0,0,0.771614
0,0,0.771979
0,3,0.785052
0,0,0.781302
0,0,0.797656
0,0,0.776615
0,0,0.777292
0,0,0.763594
0,0,0.805104
0,0,0.773489
0,0,0.774896
0,0,0.773802
0,0,0.794271
0,0,0.783021
0,0,0.787969
0,0,0.775156
2,2,0.858542
0,0,0.777084
0,0,0.780781
0,0,0.775157
0,0,0.770573
0,0,0.815365
0,0,0.771875
0,0,0.777813
0,0,0.775261
0,0,0.792917
0,0,0.85151
0,0,0.768229
0,0,0.768959
0,0,0.900052
2,2,0.773282
2,2,0.771823
0,0,0.778333
0,0,0.821615
0,0,0.76677
0,0,0.765885
0,0,0.776666
0,0,0.8025
0,0,0.76974
0,0,0.770208
0,0,0.770052
0,0,0.773698
0,0,0.837969
0,0,0.775573
0,1,0.770521
0,0,0.771667
0,0,0.873437
0,0,0.781094
0,0,0.771041
0,0,0.770625
0,0,0.835208
0,0,0.76927
0,0,0.766354
0,0,0.76599
0,0,0.792396
0,0,0.773698
0,0,0.827813
0,0,0.77875
0,0,0.800677
0,0,0.772188
0,0,0.769219
0,0,0.784167
0,0,0.78099
1,1,0.827136
0,0,0.778907
0,0,0.767396
0,0,0.770625
0,0,0.844427
1,1,0.782552
2,2,0.776718
0,0,0.780677
0,1,0.808073
0,0,0.780678
2,2,0.767708
0,0,0.77
0,0,0.804896
2,2,0.765677
0,0,0.771406
0,0,0.771823
0,0,0.766198
0,0,0.792761
0,0,0.772292
0,0,0.766823
0,0,0.768125
0,0,0.818959
0,0,0.765625
0,0,0.803282
0,0,0.769739
0,0,0.791876
0,0,0.766458
0,0,0.767396
0,0,0.770208
0,0,0.765573
0,0,0.778177
0,0,0.76901
2,2,0.769428
0,0,0.767031
0,0,0.809583
2,2,0.787032
0,0,0.782031
0,0,0.770573
0,0,0.809219
0,0,0.772031
0,0,0.7725
0,0,0.764063
0,0,0.834583
0,0,0.768854
0,0,0.772708
0,1,0.76724
0,0,0.809479
0,0,0.778803
0,0,0.772812
0,0,0.776198
0,0,0.783438
1,1,0.82198
0,0,0.770261
0,0,0.813698
0,0,0.773229
2,2,0.849323
0,0,0.772552
1,1,0.776094
0,0,0.77375
0,0,0.814896
0,0,0.768021
0,0,0.775625
0,0,0.773802
0,0,0.807083
0,0,0.782813
0,0,0.771511
0,0,0.769792
0,0,0.769115
0,0,0.794323
0,0,0.779323
0,0,0.770364
0,0,0.772135
0,0,0.822968
2,3,0.77776
0,0,0.782553
0,0,0.77776
0,0,0.804115
0,0,0.780885
2,2,0.779011
0,0,0.783698
0,0,0.827084
0,0,0.778073
0,0,0.763958
0,0,0.778854
0,0,0.820781
3,3,0.773593
0,0,0.774739
0,0,0.771667
0,0,0.77125
0,0,0.802708
0,0,0.776407
0,0,0.771719
0,0,0.771771
1,1,0.802135
0,0,0.776771
0,0,0.781458
0,0,0.784479
0,0,0.829844
0,0,0.772031
0,0,0.773906
0,0,0.778073
0,0,0.79849
2,2,0.766667
0,0,0.779323
0,0,0.770677
0,0,0.768177
3,0,0.82125
0,0,0.783282
0,0,0.778594
0,0,0.779219
0,0,0.814687
0,0,0.773386
2,2,0.829271
0,0,0.781406
0,0,0.829896
0,0,0.769948
0,0,0.780937
0,0,0.775625
0,0,0.798646
0,0,0.770625
1,1,0.769844
0,0,0.770417
0,0,0.768594
3,3,0.818125
0,0,0.772916
0,0,0.771145
0,0,0.77526
0,1,0.810625
0,0,0.778177
0,0,0.779688
0,0,0.777656
0,0,0.832968
2,2,0.763698
0,0,0.77
0,0,0.767396
0,0,0.807813
1,1,0.770209
0,0,0.777396
2,2,0.905417
0,0,1.647188
2,2,1.006615
0,0,0.953438
0,0,1.049479
0,0,0.980261
0,0,1.122448
0,0,1.077657
0,0,1.00198
0,0,0.95625
0,0,1.050626
2,2,0.952292
0,0,0.94401
0,0,0.943541
0,0,1.02026
0,0,0.948125
0,0,0.954583
0,0,0.983334
0,0,0.958959
0,0,0.943438
0,0,0.945
0,0,0.987188
0,0,0.966823
0,0,0.937031
0,0,0.992553
2,2,0.936303
0,0,0.954792
0,0,0.939636
0,0,0.978907
0,0,0.944271
0,0,0.955885
1,1,1.046771
2,2,0.94125
0,0,0.939063
0,0,0.986979
0,0,0.959532
0,0,0.945312
0,0,0.9325
0,0,1.012865
0,0,0.942709
0,0,0.940468
0,0,0.971459
0,0,0.94651
3,3,0.934427
0,0,0.951875
2,2,0.962917
0,0,0.943907
0,0,0.944323
2,2,0.965834
0,0,0.941979
0,0,0.943854
0,0,0.937812
0,0,1.00651
0,0,0.940312
0,0,0.977813
2,2,0.996041
0,0,0.963646
2,2,0.935573
0,0,0.935209
0,0,0.97974
0,0,0.948541
0,0,0.999792
0,0,0.978958
0,0,0.947448
0,0,1.070209
0,0,0.975834
0,0,0.947136
2,2,0.940521
0,0,0.944844
0,0,0.997708
0,0,0.939583
0,0,0.96625
0,0,0.981458
1,1,0.942396
0,0,0.942239
0,0,0.94651
0,0,1.015989
0,0,0.944896
0,0,0.938177
0,0,0.982657
0,0,0.94375
0,0,0.95323
0,0,0.952552
0,0,0.975625
0,0,0.934062
0,0,0.944688
0,0,0.994792
0,0,0.951302
0,0,0.942709
0,0,0.949219
2,2,0.996927
0,0,1.026459
0,0,0.934896
0,0,0.991407
2,2,0.969271
0,0,0.952917
0,0,0.980312
0,0,0.957136
0,0,0.948542
0,0,0.937239
0,0,0.985156
0,0,0.95224
0,0,0.94948
0,0,0.983594
0,0,0.939115
0,0,0.949271
0,0,0.945052
0,0,0.992344
0,0,0.938229
0,0,0.944584
1,1,1.003698
0,0,0.942708
0,0,0.943177
0,0,0.936823
0,0,0.979427
0,0,0.949844
0,0,0.94849
0,0,1.010469
0,0,0.964479
0,0,0.939948
0,0,0.940521
0,0,1.032917
1,1,0.954427
0,0,0.971198
0,0,0.998177
0,0,0.957396
0,0,0.946146
0,0,0.986823
0,0,0.965937
0,0,0.946563
0,0,0.941875
0,0,0.990261
0,0,0.974427
0,0,0.950312
0,0,1.012396
0,0,0.945938
0,0,0.960365
0,0,0.949114
0,0,0.988802
0,0,0.950521
0,0,0.939635
0,0,0.987239
0,0,0.946511
0,0,0.943073
0,0,0.949583
0,0,1.002865
0,0,0.945
3,3,0.943959
0,0,0.997604
0,0,0.952656
0,0,0.945834
0,0,1.016927
0,0,0.987917
0,0,0.959531
0,0,0.936042
0,0,0.998125
0,0,0.948282
2,2,0.954167
0,0,0.98474
0,0,0.948542
0,0,0.939115
0,0,0.940052
0,0,0.973021
2,2,0.951406
0,0,0.953645
0,0,0.984167
0,0,0.936459
0,0,0.947968
0,0,0.932657
0,0,0.999115
0,0,0.953177
0,0,0.970677
0,0,0.984167
0,0,0.943906
0,0,0.935521
0,0,0.954167
2,2,0.982969
0,0,0.945938
0,0,0.946146
0,0,0.989896
0,0,1.008386
2,2,0.955001
0,0,0.933489
0,0,0.977657
0,0,0.935365
0,0,0.940156
0,0,0.976198
0,0,0.942083
0,0,0.934583
2,2,0.93776
0,0,0.971771
0,0,0.935885
0,0,0.974427
0,0,0.983854
0,0,0.934843
2,2,0.960886
0,0,0.947343
0,0,0.987188
0,0,0.950312
0,0,0.94599
0,0,0.996667
0,0,0.943802
0,0,0.942708
0,0,0.946823
0,0,0.983438
0,0,0.962969
0,0,0.942865
0,0,0.993906
0,0,0.950885
2,2,0.942448
0,0,1.082031
0,0,0.93698
0,0,0.975469
0,0,0.940469
0,0,1.015729
0,0,0.948334
0,0,0.942084
0,0,0.976459
0,0,0.952708
3,3,0.951979
0,0,0.940782
0,0,1.00026
0,0,0.943333
0,0,0.96125
0,0,0.992239
0,0,0.936615
0,0,0.954844
0,0,0.94974
0,0,0.995156
0,0,0.952969
0,0,0.937865
0,0,0.994219
0,0,0.947813
0,0,0.948594
2,2,0.956667
0,0,0.989115
0,0,0.941406
0,0,0.944114
0,0,0.983333
0,0,0.956875
0,0,0.994792
2,2,0.975677
0,0,0.952864
0,0,0.945886
0,0,0.94198
2,2,0.985312
0,0,0.953438
0,0,0.954792
0,0,0.986615
0,0,0.939636
1,1,0.951927
0,3,0.945208
0,0,0.984063
0,0,0.942448
0,0,0.944896
0,0,0.984428
0,0,0.937657
0,0,0.935521
0,0,0.949948
0,0,0.984687
0,0,0.947969
0,0,0.938854
0,0,0.993021
0,0,0.942136
0,0,0.94474
0,0,0.94901
0,0,1.001666
0,0,0.942239
0,0,0.950052
0,0,0.986667
0,0,1.032396
0,0,0.935
0,0,0.946562
0,0,0.990625
0,0,0.954219
0,0,0.940885
0,0,0.993177
0,0,0.952709
2,2,0.947553
0,0,0.962604
0,0,0.950104
2,2,0.961719
0,0,0.950417
0,0,1.007395
0,0,0.948906
0,0,0.94724
0,0,0.993802
0,0,0.954948
0,0,0.951511
0,0,0.955573
0,0,0.994167
0,0,0.940364
0,0,0.947344
0,0,0.977864
0,0,0.963594
0,0,0.944792
0,0,0.939167
2,2,1.027448
0,0,0.945677
0,0,0.939011
0,0,1.071093
0,0,0.947343
0,0,0.952709
2,2,0.943802
0,0,0.986458
2,2,0.958334
0,0,0.945365
0,0,0.986927
0,0,0.956928
0,0,0.949062
0,0,0.985417
0,0,0.971771
0,0,0.936251
0,0,0.952969
0,0,0.977343
0,0,0.940312
0,0,0.949062
0,0,0.981355
0,0,0.950417
0,0,0.941146
0,0,0.958542
0,0,0.998542
0,0,0.946146
0,0,0.971927
0,0,0.995156
0,0,0.958854
0,0,0.9525
0,0,0.936407
0,0,1.028698
0,0,1.04448
0,0,0.950938
0,0,0.99
0,0,0.964219
0,0,0.941771
0,0,0.981511
0,0,0.947917
0,1,0.954219
0,0,0.94776
0,0,0.980469
0,0,0.949948
0,0,0.946406
0,0,0.98151
3,3,0.960989
0,0,0.949375
0,1,0.96625
0,0,1.0075
0,0,0.947656
0,0,0.938802
0,0,0.981511
0,0,0.949376
0,0,0.945104
0,0,0.934688
0,0,1.016875
0,0,0.954635
0,0,0.94026
0,0,0.988282
0,0,0.958906
0,0,0.932709
0,0,0.93349
2,2,1.033334
0,0,0.961771
0,0,0.945781
0,0,0.980468
2,2,0.938958
1,1,0.964063
0,0,0.943906
2,2,0.98349
0,0,0.969271
0,0,0.942917
0,0,0.976094
0,0,0.946458
0,0,0.942813
0,0,0.944479
0,0,0.966459
0,0,0.942187
0,0,0.939844
0,0,1.007968
0,0,0.939114
0,0,0.945834
0,0,0.98849
0,0,0.955625
0,0,0.952969
0,0,0.941042
0,0,1.011407
0,0,0.947188
0,0,0.94625
0,0,0.996562
0,0,0.961615
0,0,0.954688
0,0,1.021459
0,0,0.997344
0,0,0.962031
0,0,0.943854
0,0,0.987083
0,0,0.93599
0,0,0.940313
2,2,0.944375
0,0,0.984427
0,0,0.936667
0,0,0.969219
0,0,0.976458
0,0,0.934844
0,0,0.942136
0,0,0.969635
0,0,0.999636
0,0,0.958906
0,0,0.954063
0,0,1.024688
0,0,0.959896
0,0,0.944479
0,0,0.991875
2,2,0.956927
0,0,0.953282
0,0,0.944896
2,2,1.013594
2,2,0.958178
0,0,0.933229
0,0,0.988125
0,0,0.960625
0,0,1.023177
0,0,0.940677
0,0,1.009792
0,0,0.951511
0,0,0.948698
0,0,0.983958
0,0,0.956146
0,0,0.943282
2,2,0.947656
0,0,1.001771
0,0,0.942709
0,0,0.953334
0,0,0.988959
0,0,0.943073
0,0,0.939166
0,0,0.948334
0,0,0.986979
0,0,0.936927
0,0,0.948542
0,0,1.004062
0,0,0.959687
0,0,0.935001
0,0,0.982864
1,1,0.944532
0,0,0.946771
0,0,0.958073
0,0,0.981927
2,2,0.963125
0,0,0.951198
0,0,1.007396
0,0,1.045261
0,0,0.961406
0,0,0.945729
0,0,1.001042
0,0,0.945521
0,0,0.954115
0,0,0.993073
0,0,0.950677
0,0,0.939844
2,2,0.956354
2,2,0.983489
0,0,0.957083
0,0,0.94724
0,0,1.020156
2,2,0.94599
0,0,0.942188
0,0,0.998646
0,0,0.948438
0,0,0.949948
2,2,0.938802
0,0,1.006979
0,0,0.961459
0,0,0.946042
0,0,0.987344
1,0,0.955312
0,0,0.939688
0,0,0.936615
0,0,0.975156
0,0,0.95823
0,0,1.031354
0,0,0.996615
0,0,0.944688
0,0,0.958802
0,0,0.934167
0,0,1.003021
2,2,0.952448
0,0,0.951459
0,0,0.993438
2,2,0.940677
0,0,0.936875
0,0,0.955834
0,0,0.993177
0,0,0.94448
0,0,0.958489
0,0,1.005209
2,2,0.943698
0,0,0.945208
0,0,0.937604
0,0,0.994532
0,0,0.94323
0,0,0.941562
0,0,0.977031
0,0,0.948855
0,0,0.939375
0,0,0.976875
0,0,0.95099
0,0,0.952448
0,0,0.946511
0,0,0.982031
0,0,1.006094
0,0,0.994323
0,0,0.976093
0,0,0.952188
0,0,0.954895
0,0,0.955573
0,0,0.994063
0,0,0.954635
0,0,0.94224
0,0,0.982552
0,0,0.949114
0,0,0.960937
0,0,0.96651
2,2,0.974948
0,0,0.940104
0,0,0.957136
0,0,1.003177
2,2,0.948229
0,0,0.937604
0,0,0.94974
0,0,1.002292
0,0,0.936458
0,0,0.933854
0,0,1.010105
0,0,0.942136
0,0,0.951875
0,0,0.933282
0,0,0.942812
0,0,0.945261
0,0,0.940365
0,0,1.067708
0,0,0.968907
0,0,0.95625
0,0,0.997553
0,0,0.946667
0,0,0.941198
0,0,0.958073
0,0,0.985625
0,0,0.948125
0,0,0.941666
0,0,0.981251
0,0,0.95474
2,2,0.95151
0,0,0.942031
0,0,0.997917
0,0,0.956458
0,0,0.934791
0,0,0.980521
0,0,0.949011
0,0,0.950573
0,0,0.942969
0,0,0.991666
0,0,0.967813
0,0,0.947708
1,1,0.981406
0,0,0.952657
0,0,0.951979
0,0,0.949062
0,0,0.996354
2,0,0.963855
0,0,1.034428
0,0,1.017656
0,0,0.951562
0,0,0.96401
0,0,0.987084
0,0,0.934792
0,0,0.94099
2,2,0.963959
0,0,0.998854
0,0,0.94724
0,0,0.955261
0,0,0.986198
0,0,0.950417
0,0,0.952917
0,0,0.938855
3,3,0.991354
0,0,0.938073
2,2,0.944532
0,0,0.988489
2,2,0.952605
0,0,0.939583
0,0,0.946042
0,0,0.986198
0,0,0.957969
0,0,0.942083
0,0,0.98073
0,0,0.947083
0,0,0.943385
0,0,0.94375
0,0,0.986146
0,0,0.995417
2,2,0.945
0,0,0.97651
0,0,0.943698
0,0,0.9475
0,0,0.998021
0,0,0.942292
0,0,0.95125
2,2,0.944584
0,0,0.992916
0,0,0.948438
2,2,0.945938
0,0,0.985001
0,0,0.947031
0,0,0.938959
0,0,0.953802
0,0,1.001771
0,0,0.960521
2,2,0.956458
0,0,0.980313
0,0,0.958333
0,0,0.947031
0,0,0.941354
2,2,0.978177
0,0,0.959635
0,0,0.94823
0,0,0.972187
0,0,0.941979
0,0,0.950573
0,0,0.93974
0,0,1.066302
0,0,0.955312
2,2,0.955104
0,0,0.974896
0,0,0.945261
0,0,0.942605
1,1,0.962917
0,0,0.982396
0,0,0.948437
1,1,0.936875
0,0,0.991042
0,0,0.950885
2,2,0.949896
0,0,0.975
0,0,0.967813
0,0,0.948802
0,0,0.94776
0,0,0.976614
0,0,0.956406
2,2,0.937604
0,0,0.976354
0,0,0.948073
0,0,0.955677
0,0,0.944688
2,2,0.975365
0,0,0.943385
0,0,0.940209
0,0,0.993698
0,0,0.950625
0,0,1.001979
0,0,0.948803
0,0,0.990521
0,0,0.946876
0,0,0.945573
0,0,0.993229
0,0,0.95224
3,3,0.943698
0,0,0.951354
2,2,0.991666
2,2,0.952917
0,0,0.937448
0,0,0.977969
0,0,0.956042
0,0,0.943177
0,1,0.939479
0,0,0.976511
0,0,0.942656
0,0,0.937344
0,0,0.992813
0,0,0.946355
0,0,0.950521
0,0,0.945156
0,0,0.976771
0,0,0.963803
1,1,0.936928
0,0,0.981146
0,0,0.94651
0,0,0.948386
0,0,0.995781
0,0,0.998646
2,2,0.955521
0,0,0.954115
2,2,1.015156
0,0,0.94401
0,0,0.960781
0,0,0.991823
0,0,0.943125
0,0,0.937031
0,0,0.948594
0,0,1.01573
0,0,0.942969
0,0,0.940364
0,0,0.98349
0,1,0.945365
0,4,0.947761
0,0,0.935521
0,0,0.994375
0,0,0.943073
2,2,0.940209
0,0,0.986042
0,2,0.967187
0,0,0.943959
2,2,0.96474
0,0,0.989479
0,0,0.942552
0,0,0.948594
0,0,0.97448
0,0,0.939583
0,0,0.945833
0,0,1.000052
0,0,0.991927
0,0,0.939323
0,0,0.940208
0,0,1.021041
0,0,0.942031
0,0,0.947344
0,0,1.015261
1,1,0.954687
0,0,0.936927
0,0,0.940104
0,0,1.021042
0,0,0.941667
0,0,0.944791
0,0,0.981042
0,0,0.953073
0,0,0.950104
0,0,0.9475
0,0,1.031354
0,0,0.948906
0,0,0.933802
1,1,0.974375
0,0,0.94776
0,0,0.941719
0,0,0.932188
0,0,0.97651
0,0,0.942344
0,0,0.952865
0,0,0.967657
0,0,0.932813
0,0,0.988386
0,0,0.935104
0,0,0.972552
0,0,0.941563
0,0,0.944011
0,0,0.972344
3,3,0.937656
0,0,0.932031
0,0,0.950053
0,0,1.002188
0,0,0.961927
0,0,0.946719
0,0,1.00151
0,0,0.967501
0,0,0.95276
0,0,0.938073
0,0,0.993333
0,0,0.962969
0,0,0.966771
0,0,0.995729
0,0,0.96026
0,0,0.961302
0,0,0.988021
0,0,0.95151
2,2,0.960417
0,0,0.963594
0,0,0.996718
0,0,0.954531
0,0,0.960365
0,0,0.995781
0,0,0.994948
0,0,0.941667
0,0,0.95474
0,0,1.002917
0,0,0.954427
0,0,0.94073
0,0,0.99099
0,0,0.940937
0,0,0.945469
0,0,0.953958
0,0,0.983437
0,0,0.934791
0,0,0.943542
0,0,0.99073
0,0,0.954896
0,0,0.946093
0,0,0.970417
0,0,0.951875
0,0,0.950417
0,0,0.93099
0,0,0.98599
0,0,0.947292
0,0,0.943177
0,0,0.980209
0,0,0.946771
0,0,0.942917
0,0,0.96276
0,0,0.993386
0,0,0.950417
0,0,1.040989
2,2,1.01224
0,0,0.941198
0,0,0.935781
0,0,0.939219
0,0,0.994323
0,0,0.93526
2,2,0.945
0,0,0.976667
0,0,0.94875
0,0,0.939115
0,0,0.943125
0,0,1.006459
0,0,0.97323
0,0,0.942864
0,0,0.998906
0,0,0.9475
0,0,0.956303
0,0,0.946094
0,0,0.992917
0,0,0.952709
0,0,0.937761
0,0,1.016823
1,1,0.947865
0,0,0.950469
0,0,0.98375
0,0,0.940208
0,0,0.957292
0,0,0.955833
0,0,1.016302
0,0,1.038802
0,0,0.944323
0,0,1.0075
0,0,0.963229
0,0,0.940885
0,0,0.953438
2,2,1.004271
0,0,0.939896
0,0,0.94099
0,0,1.00776
0,0,0.947136
0,0,0.9525
0,0,0.936979
0,0,0.971979
0,0,0.966614
0,0,0.944531
0,0,0.973073
0,0,0.945833
0,0,0.948229
0,0,0.942865
0,0,0.984323
0,0,0.93802
0,0,0.940625
0,0,0.983073
0,0,0.96224
0,0,0.95125
1,1,0.993802
0,0,0.960729
2,2,0.962187
0,0,0.94901
0,0,1.078177
0,0,0.955729
0,0,0.950938
0,0,0.987656
0,0,0.949427
0,0,0.939896
0,0,0.939323
0,0,0.992239
0,0,0.949323
0,0,0.945261
0,0,0.976876
1,1,0.947552
2,2,0.942813
0,0,0.941146
0,0,0.98651
0,0,0.954896
0,0,0.936459
0,0,0.986615
0,0,0.942031
0,0,0.974427
0,0,0.941458
0,0,0.98276
0,0,0.940468
0,0,0.949896
0,0,0.978542
1,1,0.946355
0,0,0.954115
0,0,0.947864
0,0,0.991458
0,0,0.941563
0,0,1.030521
0,0,1.017605
0,0,0.948073
0,0,0.939479
0,0,0.985782
0,0,0.953021
0,0,0.956042
0,0,0.949427
0,0,1.025313
0,0,0.960416
0,0,0.938178
0,0,0.99026
0,0,0.977344
0,0,0.941719
0,0,0.944532
0,0,0.984271
0,0,0.963803
2,2,0.986146
0,0,0.970104
0,0,0.953281
0,0,0.953386
0,0,0.968959
3,0,1.0
0,0,0.789479
0,0,0.779532
0,0,0.780625
0,0,0.817031
0,0,0.776354
0,0,0.779532
0,0,0.797343
0,0,0.902917
0,0,0.793178
0,0,0.79
0,0,0.786667
0,0,0.832761
0,0,0.802656
0,0,0.792865
0,0,0.799062
0,0,0.826719
2,2,0.792813
0,0,0.794896
0,0,0.784636
0,0,0.838021
0,0,0.79448
0,0,0.784688
0,0,0.785469
0,0,0.835052
0,0,0.786354
0,0,0.792344
0,0,0.789739
0,0,0.821875
0,0,0.791511
0,0,0.792032
0,0,0.796614
0,0,0.783542
2,2,0.835886
0,0,0.791823
2,2,0.781771
0,0,0.796614
0,0,0.832031
0,0,0.842708
0,0,0.789636
2,2,0.785886
0,0,0.833959
2,2,0.790625
0,0,0.781615
0,0,0.793489
0,0,0.841146
0,0,0.798125
0,0,0.787657
0,0,0.784427
0,0,0.817969
0,0,0.791198
0,0,0.785833
0,0,0.789739
0,0,0.81474
0,0,0.788855
0,0,0.782761
0,0,0.781459
0,0,0.834896
0,0,0.801563
0,0,0.809375
0,0,0.792032
2,2,0.786303
0,0,0.82401
0,0,0.780625
0,0,0.788594
0,0,0.812448
0,0,0.829948
0,0,0.850989
0,0,0.786875
0,0,0.791354
0,0,0.83302
0,0,0.79349
0,0,0.796719
0,0,0.780834
1,1,0.830417
1,1,0.789011
0,0,0.779896
0,0,0.790729
0,0,0.831927
0,0,0.799323
0,0,0.781354
0,0,0.784167
0,0,0.828594
0,0,0.781979
0,0,0.780208
0,0,0.790573
0,0,0.830677
0,1,0.792709
0,0,0.78625
0,0,0.816667
0,0,0.786094
0,0,0.813021
0,0,0.80875
0,0,0.796094
0,0,0.784739
0,0,0.816459
0,0,0.793385
0,0,0.877291
0,0,0.792917
0,0,0.829219
0,0,0.789375
0,0,0.795469
0,0,0.799115
0,0,0.843958
0,0,0.801094
0,0,0.79599
0,0,0.802812
0,0,0.827656
0,0,0.790104
0,0,0.786251
0,0,0.785885
0,0,0.834427
0,0,0.79901
0,0,0.794114
0,0,0.783021
0,0,0.817187
0,0,0.793437
0,0,0.784792
0,0,0.804062
0,0,0.792552
0,0,0.839219
0,0,0.788073
1,0,0.787031
1,1,0.787291
0,0,0.831459
0,0,0.786511
0,0,0.790157
0,0,0.861198
0,0,0.829792
0,1,0.785885
0,0,0.78474
2,2,0.789532
2,2,0.836354
0,0,0.792657
0,1,0.788646
0,0,0.794219
0,0,0.861198
0,0,0.791875
0,0,0.792239
0,0,0.800105
0,0,0.8375
0,0,0.788855
0,0,0.788334
0,0,0.789583
0,0,0.838594
2,2,0.796667
0,0,0.899687
0,0,0.787136
0,0,0.818125
0,0,0.791042
0,0,0.794635
0,0,0.788385
2,2,0.821042
0,0,0.790938
1,1,0.786459
0,0,0.787344
0,0,0.824375
0,0,0.858282
0,0,0.789375
0,0,0.79552
0,0,0.859323
0,0,0.797761
0,0,0.78651
0,0,0.794531
0,0,0.786198
0,0,0.826406
0,0,0.784584
0,0,0.801354
2,2,0.787187
0,0,0.835312
0,0,0.797865
0,0,0.78177
0,0,0.780469
0,0,0.821615
0,0,0.793907
0,0,0.792448
0,0,0.788646
2,2,0.826615
0,0,0.78375
0,0,0.785625
0,0,0.782552
0,0,0.826094
2,2,0.787396
0,0,0.804167
0,0,0.811406
0,0,0.832396
0,0,0.786407
0,0,0.882344
0,0,0.793125
0,0,0.83151
0,0,0.804167
2,2,0.792292
0,0,0.786406
0,0,0.782968
0,0,0.829532
0,0,0.785989
0,0,0.788646
0,0,0.786459
0,0,0.836928
0,0,0.794583
0,0,0.788281
1,1,0.791146
0,0,0.905886
0,0,0.846563
0,0,0.831094
0,0,0.837604
2,2,0.861667
0,0,0.793438
0,0,0.800156
0,0,0.796667
0,0,0.858906
0,0,0.792969
0,0,0.792396
0,0,0.796875
0,0,0.873854
0,0,0.803177
0,0,0.86974
0,0,0.795625
0,0,0.858282
1,1,0.797396
0,0,0.796354
0,0,0.796563
0,0,0.859792
0,0,0.804063
0,0,0.789114
0,0,0.791563
0,0,0.856458
0,0,0.792292
0,0,0.796146
0,0,0.805573
0,0,0.83625
0,0,0.798698
0,0,0.79375
0,0,0.792083
0,0,0.829375
0,0,0.79
0,0,0.792292
0,0,0.794948
0,0,0.831771
0,0,0.79526
0,0,0.788125
0,0,0.784063
3,3,0.812448
0,0,0.852031
0,0,0.801042
0,0,0.796823
0,0,0.875573
0,0,0.852448
2,2,0.796875
0,0,0.788594
0,0,0.788385
0,0,0.852969
0,0,0.792448
0,0,1.005729
2,2,1.134167
0,0,0.823229
0,0,0.803021
0,0,0.824427
0,0,0.897187
0,0,0.836875
0,0,0.842083
0,0,0.84927
0,0,0.905
0,0,1.199531
0,0,0.933021
1,1,0.893907
2,2,0.82125
2,2,0.818073
2,2,0.799428
0,1,0.871979
0,0,0.814635
1,0,0.809584
0,0,0.816042
0,0,0.893229
0,0,0.819896
2,2,0.806406
0,0,0.876511
0,0,0.970053
0,0,0.796407
0,0,0.770625
0,0,6.094949
0,0,0.876667
0,0,0.770052
0,0,0.837969
0,0,0.791354
0,0,0.771302
0,0,0.773646
0,0,0.816771
0,0,0.784011
0,0,0.770781
0,0,0.780052
0,0,0.79276
0,0,0.772136
0,0,0.771458
0,0,0.782865
0,0,0.771927
0,0,0.848334
0,0,0.778125
0,0,0.771354
2,2,0.771407
0,0,0.808386
0,0,0.771615
0,0,0.773646
0,0,0.775729
0,0,0.815834
0,0,0.77224
0,0,0.815573
0,0,0.767917
2,2,0.792969
0,0,0.776302
0,0,0.767083
0,0,0.77
0,0,0.768282
0,0,0.801094
0,0,0.772813
0,0,0.771771
0,0,0.767188
0,0,0.798177
0,0,0.772604
0,0,0.772656
0,0,0.768698
0,0,0.822344
0,0,0.765156
0,0,0.777917
0,0,0.769011
2,2,0.80323
0,0,0.766042
0,0,0.772135
2,2,0.77177
0,0,0.762812
0,0,0.793542
0,0,0.770782
0,0,0.766511
0,0,0.765052
0,0,0.785469
0,0,0.768437
0,0,0.804948
0,0,0.776927
0,0,0.820052
0,0,0.775677
0,0,0.771198
0,0,0.769948
0,0,0.76625
0,0,0.793489
0,0,0.772136
0,0,0.767969
0,0,0.767604
0,0,0.827136
0,0,0.768958
0,0,0.775209
0,0,0.770261
0,0,0.79974
0,0,0.784063
0,0,0.7725
0,0,0.771354
0,0,0.804948
0,0,0.771927
0,0,0.768385
0,0,0.772344
0,0,0.767709
0,0,0.792656
0,0,0.769219
1,1,0.773698
0,0,0.774115
0,0,0.807656
0,0,0.824063
0,0,0.781667
0,0,0.775677
0,1,0.804896
0,0,0.776823
0,0,0.769323
0,0,0.77401
0,0,0.828125
0,0,0.772865
0,0,0.770313
1,1,0.775468
0,0,0.777344
0,0,0.796354
0,0,0.771094
0,0,0.773698
0,0,0.771041
0,0,0.794218
0,0,0.776146
0,0,0.771407
0,0,0.773281
0,0,0.79
0,0,0.773802
2,2,0.779948
0,0,0.773334
0,0,0.798386
0,0,0.770313
0,0,0.772917
0,0,0.772187
0,0,0.770104
0,0,0.789479
0,0,0.807292
0,0,0.772864
0,0,0.780312
3,3,0.814323
0,0,0.780521
0,0,0.768906
0,0,0.781719
0,0,0.80599
0,0,0.769844
0,0,0.766094
0,0,0.770834
0,0,0.788073
0,1,0.770469
0,0,0.771927
0,0,0.766354
0,0,0.766875
0,0,0.793646
2,2,0.769531
0,0,0.77073
0,2,0.774584
0,0,0.802604
0,0,0.779115
0,0,0.767031
2,2,0.769011
0,0,0.787552
0,0,0.772865
0,0,0.773802
0,0,0.768333
0,0,0.768178
0,0,0.804531
0,0,0.800989
2,2,0.768802
0,0,0.778177
0,0,0.80724
0,0,0.771146
0,0,0.77724
0,0,0.768438
2,2,0.800938
0,0,0.773334
2,2,0.77901
0,0,0.770989
0,0,0.789479
0,0,0.77599
0,0,0.773594
0,0,0.779115
1,1,0.783281
0,0,0.798385
0,0,0.776406
0,0,0.779427
0,0,0.781719
0,0,0.810833
1,1,0.777968
0,0,0.785312
0,0,0.777031
0,0,0.823177
0,0,0.780573
0,0,0.775573
0,0,0.776198
0,0,0.807813
0,0,0.783698
0,0,0.812448
0,0,0.774688
0,0,0.794063
0,0,0.775052
0,0,0.781823
0,0,0.779583
0,0,0.783906
0,0,0.809739
0,0,0.778594
0,0,0.775886
0,0,0.775365
0,0,0.805938
0,0,0.777604
0,0,0.778959
0,0,0.775781
0,0,0.795521
0,0,0.774531
0,0,0.775
0,0,0.780052
0,0,0.829896
0,0,0.775885
2,2,0.775469
0,0,0.776406
0,0,0.779063
0,0,0.796667
0,0,0.780208
0,0,0.781511
2,2,0.788854
0,0,0.812084
0,0,0.776094
0,0,0.810521
0,0,0.778959
2,2,0.800313
0,0,0.781875
0,0,0.77599
0,0,0.77651
0,0,0.805573
0,0,0.778125
0,0,0.779428
0,0,0.776354
0,0,0.779063
0,0,0.813177
0,0,0.776875
0,0,0.779532
0,0,0.780261
0,0,0.821354
0,0,0.823646
0,0,0.797448
0,0,0.778698
2,2,0.8325
0,0,0.773646
0,0,0.773437
0,0,0.773594
0,0,0.836875
0,0,0.77776
0,0,0.778021
2,2,0.785781
0,0,0.798437
0,0,0.776875
0,0,0.781615
2,2,0.818385
0,0,0.807812
0,0,0.779167
0,0,0.778802
0,0,0.775573
0,0,0.77677
2,2,0.807708
0,0,0.784739
0,0,0.78151
0,0,0.777448
0,0,0.842136
0,0,0.778281
0,0,0.77974
0,0,0.781563
0,0,0.820209
0,0,0.782291
0,0,0.777604
0,0,0.776198
0,0,0.792813
0,0,0.77625
0,0,0.77573
0,0,0.781458
0,0,0.776979
0,0,0.799167
0,0,0.778698
0,0,0.789531
0,0,0.780208
0,0,0.812032
0,0,0.783281
0,0,0.811198
0,0,0.777239
0,0,0.81026
0,0,0.777031
0,0,0.77625
0,0,0.774584
0,0,0.812813
0,0,0.777604
0,0,0.777709
0,0,0.778855
0,0,0.810573
0,0,0.779375
0,0,0.788177
0,0,0.777292
0,0,0.776146
0,0,0.816875
0,0,0.780625
0,0,0.772708
0,0,0.7775
0,0,0.799375
0,0,0.777083
0,0,0.777917
0,0,0.777552
0,0,0.80302
0,0,0.774531
0,0,0.784166
0,0,0.779531
0,0,0.796563
0,0,0.778386
0,0,0.778489
0,0,0.817553
0,0,0.776823
0,0,0.827448
0,0,0.781823
0,0,0.776146
0,0,0.779011
0,0,0.81651
0,0,0.778385
2,2,0.774115
0,0,0.793073
0,0,0.801042
0,0,0.776458
0,0,0.783177
0,0,0.777187
0,0,0.794635
1,2,0.783751
0,0,0.778073
0,0,0.775677
0,0,0.780261
0,0,0.806354
0,0,0.774323
0,0,0.776563
0,0,0.781094
0,0,0.803802
0,0,0.769948
1,0,0.771458
0,0,0.772187
0,0,0.818698
0,0,0.768594
1,1,0.767343
0,0,0.809583
0,0,0.802084
0,0,0.769062
0,0,0.768541
0,0,0.767083
0,0,0.767604
0,0,0.800781
0,0,0.771666
0,0,0.76776
0,0,0.765
0,0,0.789167
0,0,0.773334
0,0,0.774635
2,2,0.777969
0,0,0.820521
2,2,0.771562
0,0,0.770312
0,0,0.766876
0,0,0.789948
0,0,0.76875
0,0,0.765782
0,0,0.775781
0,1,0.771666
0,0,0.812032
0,0,0.77198
2,2,0.770052
0,0,0.778073
0,0,0.81698
0,0,0.781511
0,0,0.77625
0,0,0.813281
0,0,0.797812
0,0,0.777291
0,0,0.76651
0,0,0.773438
2,2,0.790677
2,2,0.768802
0,0,0.773125
0,0,0.771562
0,0,0.771511
0,0,0.80099
0,0,0.779271
1,0,0.773594
0,0,0.785261
0,0,0.793125
0,0,0.776145
3,3,0.765
0,0,0.771667
0,0,0.809531
2,2,0.767708
0,0,0.7675
0,0,0.767291
0,0,0.798907
0,0,0.771667
0,0,0.775833
0,0,0.774896
0,0,0.769948
0,0,0.799375
0,0,0.769375
0,0,0.766667
0,0,0.807396
0,0,0.802239
0,0,0.770677
0,0,0.767188
2,2,0.768541
0,0,0.7975
0,0,0.769479
0,0,0.768282
0,0,0.771354
2,2,0.764896
1,1,0.780938
0,0,0.774532
0,0,0.772812
0,0,0.768385
0,0,0.811407
0,0,0.774115
0,0,0.769427
0,0,0.770052
0,0,0.808281
2,2,0.774896
0,0,0.772344
0,0,0.769062
0,0,0.799427
2,2,0.770626
0,0,0.771354
0,0,0.770469
0,0,0.782813
1,1,0.791771
0,0,0.774271
0,0,0.8125
0,0,0.770365
0,0,0.809375
0,0,0.77026
2,2,0.76948
0,0,0.782657
0,0,0.782709
1,0,0.774739
0,0,0.767604
0,0,0.776146
2,2,0.8125
0,0,0.771875
0,0,0.769792
0,0,0.766146
0,0,0.765157
0,0,0.811458
0,0,0.774791
0,0,0.768385
0,0,0.77
0,0,0.792761
0,0,0.788855
0,0,0.768489
0,0,0.769063
0,0,0.791615
0,0,0.767031
0,0,0.766563
0,0,0.766771
0,0,0.769948
0,0,0.791302
0,0,0.769115
2,2,0.801146
0,0,0.765782
0,0,0.790833
2,2,0.769896
0,0,0.780417
0,0,0.761094
0,0,0.818385
0,0,0.770573
0,0,0.776302
0,0,0.769688
0,0,0.79849
0,0,0.781927
0,0,0.775678
0,0,0.775781
0,0,0.771094
2,2,0.804948
0,0,0.768437
2,2,0.767448
0,2,0.77974
0,0,0.79599
0,0,0.770157
0,0,0.766614
0,0,0.767344
0,0,0.798386
0,0,0.771302
0,0,0.768177
0,0,0.763073
0,0,0.788385
0,0,0.76625
0,0,0.765261
0,0,0.801511
0,0,0.768906
0,0,0.815729
0,0,0.774792
0,0,0.767604
0,0,0.7675
0,0,0.800469
0,0,0.766928
0,0,0.7725
0,0,0.765834
2,2,0.787656
0,0,0.768438
0,0,0.766302
0,0,0.765677
0,0,0.774583
0,0,0.796406
3,3,0.76724
0,0,0.782344
0,0,0.769948
3,0,0.803334
0,0,0.760625
0,1,0.770365
0,0,0.780261
0,0,0.792813
0,0,0.772344
0,0,0.769063
0,0,0.773333
0,0,0.810209
0,0,0.766302
0,0,0.77448
0,0,0.793385
0,0,0.776303
0,0,0.807864
2,2,0.773125
0,0,0.769271
0,0,0.775678
0,0,0.789531
1,0,0.774531
0,0,0.77323
0,0,0.767864
0,0,0.800312
1,1,0.774323
0,0,0.775156
0,0,0.76974
0,0,0.792344
0,0,0.76901
0,3,0.771615
1,1,0.76849
0,0,0.773125
0,0,0.79099
0,0,0.769323
0,0,0.772813
2,2,0.781614
0,0,0.814635
0,0,0.774896
0,0,0.769636
0,0,0.774583
0,0,0.798906
0,0,0.773178
0,0,0.769739
0,0,0.798698
0,0,0.79776
0,0,0.771041
0,0,0.773177
0,0,0.770156
0,0,0.767969
2,2,0.787812
2,2,0.781146
0,0,0.766979
0,0,0.76849
0,0,0.797448
0,0,0.766407
0,0,0.7675
0,0,0.76901
0,0,0.819115
0,1,0.76875
0,0,0.771875
0,0,0.76724
0,0,0.769635
0,0,0.808177
0,0,0.775937
0,0,0.778802
0,0,0.772865
0,0,0.848438
0,0,0.772031
2,2,0.770729
1,1,0.768229
0,0,0.794115
0,0,0.769479
0,0,0.774115
0,0,0.813437
0,0,0.790886
0,0,0.761927
2,0,0.773594
0,0,0.788229
3,3,0.786771
0,0,0.824687
0,2,0.774271
0,0,0.768802
0,0,0.772969
0,0,0.797136
0,0,0.770156
0,0,0.774114
2,1,0.770937
0,0,0.828855
0,0,0.768906
0,0,0.770937
0,0,0.767188
0,0,0.7975
0,0,0.767188
0,0,0.781458
0,0,0.7725
0,0,0.768437
0,0,0.806355
0,0,0.766979
2,2,0.763802
0,0,0.76625
0,0,0.801146
0,0,0.768802
0,0,0.813177
0,0,0.776511
1,1,0.80526
0,0,0.768437
0,0,0.77073
2,2,0.782188
0,0,0.804844
0,0,0.769843
0,0,0.768073
0,0,0.768698
0,0,0.765782
0,0,0.876302
0,0,0.777239
0,0,0.77125
0,0,0.769896
0,0,0.805677
0,0,0.772135
2,2,0.765729
0,0,0.768646
0,0,0.829375
0,0,1.360833
2,2,1.022969
0,0,0.79625
2,2,0.784427
0,0,0.771042
0,0,0.772553
0,0,0.77375
0,0,0.808594
0,0,0.778021
0,0,0.769375
0,0,0.815833
0,0,0.796666
0,0,0.777709
0,0,0.770989
0,0,0.770886
0,0,0.821562
0,0,0.771563
0,0,0.770052
0,0,0.774167
2,2,0.813594
0,0,0.771302
0,0,0.769584
0,0,0.769948
0,0,0.790104
0,0,0.77
0,0,0.771042
0,0,0.774583
0,0,0.763855
0,0,0.803907
0,0,0.772083
1,1,0.767083
0,0,0.772709
0,0,0.802396
2,2,0.783021
0,0,0.77302
0,0,0.774323
0,0,0.79599
0,0,0.781875
0,0,0.771042
0,0,0.774531
0,0,0.812396
0,0,0.810469
0,0,0.769792
0,0,0.770521
2,2,0.770885
0,0,0.800885
0,0,0.776198
0,0,0.773437
0,0,0.76875
0,0,0.797448
0,0,0.769062
0,0,0.778698
2,2,0.785521
0,0,0.802239
2,2,0.769218
0,0,0.77026
0,0,0.768437
0,0,0.768073
0,0,0.801406
0,0,0.771667
0,0,0.774584
0,0,0.765833
0,0,0.791407
0,0,0.769323
0,0,0.767553
0,0,0.772708
0,0,0.818802
2,2,0.777552
0,0,0.770521
0,0,0.771406
0,0,0.841094
0,0,0.77375
0,0,0.774948
0,0,0.769792
0,0,0.776146
0,0,0.788178
0,0,0.770885
0,0,0.769636
0,0,0.768698
0,0,0.793126
2,2,0.770833
0,0,0.772448
0,0,0.783593
0,0,0.801093
0,0,0.770834
0,0,0.773281
0,0,0.767448
0,0,0.786875
0,0,0.76875
0,0,0.766928
0,0,0.775053
0,0,0.775885
0,0,0.82401
0,0,0.766198
0,0,0.771979
1,1,0.772188
0,0,0.804062
1,1,0.784635
0,0,0.772501
0,0,0.766406
0,0,0.865001
0,0,0.779479
0,0,0.769948
0,0,0.770573
0,0,0.797083
0,0,0.770312
0,0,0.769428
0,0,0.771302
0,0,0.773959
0,0,0.807552
0,0,0.774063
0,0,0.765364
0,0,0.769635
2,2,0.803177
0,0,0.769323
0,0,0.781406
0,0,0.772448
0,0,0.817865
0,0,0.767656
3,3,0.770625
0,0,0.768698
0,0,0.766458
2,2,0.802917
0,0,0.769375
0,0,0.771614
2,2,0.768751
0,0,0.791302
0,0,0.770364
0,0,0.770678
0,0,0.807865
0,0,0.800886
0,0,0.770052
0,0,0.768645
0,0,0.770156
0,0,0.794792
0,0,0.779792
0,0,0.769115
1,1,0.771042
0,0,0.769167
0,0,0.784323
0,0,0.770521
2,2,0.773229
0,0,0.766927
0,0,0.819063
0,0,0.78099
0,0,0.772031
0,0,0.769843
0,0,0.787708
0,0,0.767708
1,1,0.790312
0,0,0.772396
0,0,0.801094
0,0,0.76776
0,0,0.766927
0,0,0.770937
0,0,0.775469
1,1,0.816302
0,0,0.77323
0,0,0.770729
0,0,0.824062
0,0,0.804584
0,0,0.770365
0,0,0.768125
0,0,0.776459
0,0,0.785677
0,0,0.771198
0,0,0.769688
1,1,0.775625
0,0,0.812135
1,1,0.783334
0,0,0.768333
0,0,0.766562
0,0,0.768646
0,0,0.817188
0,0,0.767552
0,0,0.768594
0,0,0.76875
0,0,0.80474
0,0,0.766823
0,0,0.770416
0,0,0.765521
2,2,0.783281
0,0,0.763803
0,0,0.776198
2,2,0.766146
0,0,0.767917
0,0,0.794219
0,0,0.769844
0,0,0.774584
0,0,0.792864
0,0,0.793906
0,0,0.762031
0,0,0.757657
0,0,0.757865
0,0,0.800365
0,0,0.755521
0,0,0.754791
0,0,0.766927
0,0,0.815521
0,0,0.766093
0,0,0.760573
0,0,0.755469
0,0,0.767188
0,0,0.78849
0,0,0.766042
0,0,0.760365
0,0,0.755261
0,0,0.77974
0,0,0.758958
2,2,0.760886
0,0,0.763073
0,0,0.794636
0,0,0.76073
0,0,0.761042
2,2,0.758021
0,0,0.763178
0,0,0.780573
0,0,0.774115
0,0,0.763229
0,0,0.800989
0,0,0.826823
1,1,0.774219
0,0,0.774375
2,0,0.768386
2,2,0.800417
1,1,0.771563
0,0,0.767969
0,0,0.77948
0,0,0.77349
0,0,0.796875
0,0,0.769688
0,0,0.775782
0,0,0.769844
0,0,0.788073
0,0,0.76901
0,0,0.771928
0,0,0.774376
0,0,0.798698
0,0,0.772864
0,0,0.761979
0,0,0.765781
0,0,0.810573
0,0,0.76073
1,1,0.766822
0,0,0.803906
0,0,0.821042
0,0,0.759479
0,0,0.777136
0,0,0.767344
0,0,0.800104
0,0,0.803021
0,0,0.76724
0,0,0.766042
0,0,0.759843
0,0,0.820885
3,2,0.86052
0,0,0.768594
0,0,0.769427
2,2,0.85776
0,0,0.771094
0,0,0.775938
0,0,0.769948
0,0,0.801302
1,1,0.768125
0,0,0.772968
0,0,0.77375
2,2,0.789532
0,0,0.771459
0,0,0.771302
0,0,0.771302
0,0,0.770937
0,0,0.82198
0,0,0.773646
0,0,0.774323
0,0,0.772136
0,0,0.808906
0,0,0.773073
0,0,0.770573
1,1,0.813906
0,0,0.789063
0,0,0.773073
0,0,0.770312
0,0,0.775416
0,0,0.8
0,0,0.766719
0,0,0.7775
0,0,0.778593
0,0,0.779583
0,0,0.80125
0,0,0.769427
0,0,0.769428
0,0,0.768021
2,2,0.793437
0,0,0.771042
0,0,0.764896
3,3,0.781146
0,0,0.82151
1,1,0.77052
2,2,0.767136
0,0,0.765677
0,0,0.767292
0,0,0.803281
0,0,0.763802
0,0,0.770208
0,0,0.769271
0,0,0.809323
0,0,0.77474
0,0,0.770053
0,0,0.80776
0,0,0.793958
0,0,0.772031
0,0,0.768334
0,0,0.775781
0,0,0.792605
0,0,0.770313
0,0,0.76724
0,0,0.776458
0,0,0.766458
0,0,0.793177
0,0,0.777135
0,0,0.767916
0,0,0.767708
0,0,0.805937
0,0,0.769376
0,0,0.781406
0,0,0.76823
0,0,0.81099
0,0,0.767917
0,0,0.770157
0,0,0.766041
0,0,0.783594
1,1,0.766198
0,0,0.777969
0,0,0.777969
0,0,0.765886
0,0,0.795208
0,0,0.769375
0,0,0.772552
0,0,0.800521
0,0,0.808177
0,0,0.7625
0,0,0.758646
0,0,0.768541
0,0,0.789115
0,0,0.783386
0,0,0.772656
0,0,0.774167
0,0,0.770364
2,2,0.829062
0,0,0.770209
0,0,0.780885
0,0,0.767657
0,0,0.804011
0,0,0.770781
0,0,0.763907
2,2,0.765729
0,2,0.869948
0,0,0.770573
0,0,0.774219
1,1,0.769323
0,0,0.792343
0,0,0.769479
0,0,0.768229
0,1,0.76573
0,0,0.780417
0,0,0.798958
0,0,0.775104
0,0,0.775417
0,0,0.81323
0,0,0.805157
0,0,0.773177
0,0,0.772969
1,1,0.771042
0,0,0.81
0,0,0.771979
0,0,0.768073
0,0,0.766459
0,0,0.797917
0,0,0.772604
2,2,0.776666
0,0,0.767708
2,2,0.769896
0,0,0.785885
1,1,0.767083
0,0,0.773334
0,0,0.766927
0,0,0.782917
0,0,0.774896
0,0,0.768907
0,0,0.767552
0,0,0.797188
0,0,0.770625
0,0,0.776823
0,0,0.788073
0,0,0.794584
0,0,0.767344
2,2,0.769635
0,0,0.771562
2,2,0.809479
0,0,0.816198
0,0,0.768229
0,0,0.770469
0,0,0.767344
0,0,0.806615
0,0,0.769636
0,0,0.768906
0,0,0.76948
0,0,0.784636
0,0,0.780313
0,0,0.767604
0,0,0.769323
0,0,0.79349
0,0,0.767395
0,0,0.76901
0,0,0.766563
0,0,0.770625
0,0,0.798958
2,2,0.771302
0,0,0.774792
0,0,0.766302
0,0,0.788021
0,0,0.774739
0,0,0.768073
2,2,0.771875
0,0,0.807396
0,0,0.766511
0,0,0.767709
0,0,0.774688
0,0,0.806302
0,0,0.801666
0,0,0.771928
2,2,0.769166
0,0,0.765989
0,0,0.812136
0,0,0.770312
0,0,0.772136
0,0,0.774115
0,0,0.793594
0,0,0.773438
0,0,0.771667
0,0,0.770104
0,0,0.822813
0,0,0.778593
0,0,0.781928
0,0,0.770729
0,0,0.765885
0,0,0.795469
0,0,0.782135
0,0,0.775157
0,0,0.776615
0,0,0.815
0,0,0.766406
0,0,0.766719
0,0,0.770729
0,0,0.806667
0,0,0.763958
0,0,0.770573
0,0,0.809635
0,0,0.787083
0,0,0.767291
0,0,0.766876
1,1,0.766511
0,0,0.782083
2,2,0.790469
0,0,0.767761
0,0,0.766667
0,0,0.770833
0,0,0.800105
0,0,0.766146
0,0,0.775104
2,2,0.769584
0,0,0.785208
0,0,0.769844
0,0,0.770469
0,0,0.77125
0,0,0.770209
0,0,0.828959
2,2,0.773542
0,0,0.771302
0,0,0.769375
0,0,0.799792
0,0,0.769948
0,0,0.77
0,0,0.779427
0,0,0.816042
0,0,0.775313
0,0,0.777917
0,0,0.809844
0,0,0.792031
0,0,0.771614
0,0,0.79026
0,0,0.780209
0,0,0.814062
0,0,0.776302
0,0,0.771615
0,0,0.776563
2,2,0.777135
0,0,0.80849
1,0,0.772344
0,0,0.767188
0,0,0.767188
0,0,0.816667
0,0,0.771198
2,2,0.766979
1,1,0.776146
3,3,0.816302
0,0,0.771302
0,0,0.772344
0,0,0.771355
0,0,0.785
0,0,0.77375
0,0,0.766302
0,0,0.767552
0,0,0.76974
0,0,0.793542
0,0,0.776459
0,0,0.770729
2,2,0.812083
0,0,0.806823
0,0,0.779636
0,0,0.76849
0,0,0.774531
0,0,0.793437
0,0,0.771927
0,0,0.769792
0,0,0.767083
2,2,0.770729
0,0,0.813855
0,0,0.781667
1,0,0.775937
0,0,0.769115
0,0,0.810833
2,2,0.769532
0,0,0.771875
0,0,0.771927
0,0,0.788698
0,0,0.768281
2,2,0.767812
0,0,0.77474
0,0,0.810677
0,0,0.768906
0,0,0.778489
1,1,0.769688
0,0,0.769375
1,1,0.808125
0,0,0.771042
0,0,0.785989
0,0,0.849583
0,0,0.818125
0,0,0.784531
0,0,0.774948
0,0,0.777916
0,0,0.823437
0,0,0.775573
0,0,0.767969
0,0,0.764844
1,1,0.796823
0,0,0.764688
0,0,0.772292
0,0,0.767709
0,0,0.766979
1,1,0.792865
0,0,0.765052
0,0,0.763489
1,1,0.763594
1,1,0.794896
0,0,0.776042
0,0,0.768541
2,2,0.768906
0,0,0.802188
0,0,0.769427
0,0,0.772292
0,0,0.772604
0,0,0.819584
0,0,0.776407
0,0,0.771719
0,0,0.769792
0,0,0.80625
0,0,0.823906
0,0,0.765521
0,0,0.773385
2,2,0.777865
0,0,0.824844
0,0,0.772396
2,2,0.770156
0,0,0.770781
0,0,0.806823
0,0,0.784584
0,0,0.773646
0,0,0.768959
0,0,0.795833
0,0,0.768334
0,0,0.779635
0,0,0.772448
0,0,0.768958
0,0,0.800886
0,0,0.770521
3,3,0.770678
0,0,0.767552
0,0,0.805
0,0,0.773854
0,0,0.77151
0,0,0.769948
0,0,0.84
0,0,0.766354
0,0,0.77349
0,0,0.827188
0,0,0.801719
0,0,0.764948
0,0,0.766823
0,0,0.767708
0,0,0.765573
0,0,0.799583
0,0,0.764219
0,0,0.768698
0,0,0.766302
0,0,0.793125
1,1,0.767344
0,0,0.770833
0,0,0.784063
2,2,0.805261
0,0,0.768959
0,0,0.770417
2,2,0.770156
0,0,0.794375
0,0,0.767605
0,0,0.775625
0,0,0.766615
0,0,0.763594
1,1,0.808437
0,0,0.768333
0,0,0.76599
0,1,0.76974
0,0,0.799375
2,2,0.774531
0,0,0.772396
2,2,0.821042
2,2,0.804583
0,0,0.767865
2,2,0.768906
0,0,0.772864
0,0,0.766562
0,0,0.784063
0,1,0.768855
0,0,0.768281
0,0,0.769739
0,0,0.808803
0,0,0.769791
2,2,0.766145
0,0,0.777343
0,0,0.791042
0,0,0.770313
0,0,0.77099
0,0,0.766094
0,0,0.807604
0,0,0.766406
0,0,0.76375
0,0,0.765938
0,0,0.770417
0,0,0.804688
0,0,0.771718
0,0,0.766666
0,0,0.76651
0,0,0.785104
1,1,0.774844
0,0,0.768542
0,0,0.804479
0,0,0.797761
0,0,0.766615
0,0,0.766198
0,0,0.76125
0,0,0.798594
0,0,0.771146
0,0,0.765313
0,0,0.774636
0,0,0.772813
0,0,0.795209
0,0,0.777083
0,0,0.787813
0,0,0.770364
0,0,0.812187
0,0,0.772969
2,2,0.772344
0,0,0.768073
0,0,0.802031
2,2,0.784688
0,0,0.778958
0,0,0.772813
0,0,0.779791
2,2,0.808385
0,0,0.771302
0,0,0.772292
0,0,0.767864
0,0,0.800104
0,0,0.770625
0,0,0.770052
0,0,0.804011
0,1,0.801302
0,0,0.76875
0,0,0.770625
0,0,0.767969
0,0,0.793698
0,0,0.766979
0,0,0.769583
0,0,0.768959
0,0,0.771771
0,0,0.812344
0,0,0.771355
0,0,0.773438
0,0,0.768959
0,0,0.811666
0,0,0.786927
2,2,0.767708
0,0,0.77401
0,0,0.789375
0,0,0.777812
0,0,0.771459
0,0,0.773698
0,0,0.788594
0,0,0.768177
0,0,0.777291
2,2,0.771875
0,0,0.774583
0,0,0.805313
0,0,0.768698
0,0,0.77677
0,0,0.805
0,0,0.795364
0,0,0.772969
0,0,0.779062
0,0,0.771666
0,0,0.826354
0,0,0.77151
2,2,0.782343
0,0,0.779635
1,1,0.82099
0,0,0.773854
1,1,0.768907
0,0,0.77224
0,0,0.778125
0,0,0.806927
0,0,0.766979
0,0,0.777969
0,0,0.769427
0,0,0.791562
0,0,0.769896
0,0,0.768855
0,0,0.770365
0,0,0.800365
0,0,0.773646
0,0,0.768438
0,0,0.772604
0,0,0.80474
0,0,0.760573
0,0,0.782031
0,0,0.770365
0,0,0.816511
0,0,0.819375
0,0,0.77099
0,0,0.773959
2,2,0.772396
2,2,0.805729
0,0,0.773281
0,0,0.77599
2,2,0.774479
0,0,0.788907
0,0,0.769636
0,0,0.769479
0,0,0.774844
0,0,0.787552
0,0,0.767865
0,0,0.766771
1,1,0.768593
0,0,0.771563
2,2,0.801979
0,0,0.779271
0,0,0.778281
0,3,0.771406
1,1,0.786979
0,0,0.770834
0,0,0.774167
0,0,0.767344
0,0,0.82698
0,0,0.793281
0,0,0.764739
1,1,0.807969
0,0,0.806094
0,0,0.767448
0,0,0.77198
0,0,0.768542
0,0,0.768177
0,0,0.791562
0,0,0.77
0,0,0.768177
0,0,0.768646
2,2,0.803854
0,0,0.768229
0,0,0.784271
0,0,0.768438
0,0,0.795834
0,0,0.770469
0,0,0.77
0,0,0.77052
0,0,0.766719
0,0,0.787604
0,0,0.766563
0,0,0.76651
0,0,0.767917
0,0,0.825105
0,3,0.765156
0,0,0.768594
0,0,0.769583
0,0,0.797239
0,0,0.770469
2,2,0.772708
0,0,0.807344
2,2,0.803803
0,0,0.780729
0,0,0.774323
2,2,0.772812
0,0,0.773385
0,0,0.790782
0,0,0.781771
0,0,0.771823
0,0,0.777343
0,0,0.798594
0,0,0.775938
0,0,0.774115
0,0,0.772083
0,0,0.789948
0,0,0.770781
0,0,0.785625
0,0,0.777553
0,0,0.816458
0,0,0.778229
2,2,0.768802
0,0,0.76625
0,0,0.779167
0,0,0.813646
0,0,0.773073
0,0,0.773646
0,0,0.767656
0,0,0.789636
0,0,0.771875
0,0,0.771459
0,0,0.809219
0,0,0.787291
0,0,0.772709
0,0,0.769635
1,1,0.768125
0,0,0.804063
0,0,0.777032
0,0,0.773698
1,1,0.773542
0,0,0.768646
0,0,0.801979
0,0,0.770886
2,0,0.772552
0,0,0.776563
0,0,0.821198
0,0,0.780834
0,0,0.771927
0,0,0.772552
0,0,0.802188
0,0,0.772292
0,0,0.784636
0,0,0.777292
0,0,0.805521
0,0,0.771094
0,0,0.774271
0,0,0.776406
0,0,0.770625
2,2,0.796875
1,1,0.772969
0,0,0.770833
0,0,0.808594
0,0,0.803542
0,0,0.777135
0,0,0.771093
0,0,0.787812
0,0,0.830573
0,0,0.771197
0,0,0.773594
2,2,0.775156
0,0,0.816251
1,1,0.773386
0,0,0.779687
0,0,0.766823
0,0,0.772969
0,0,0.815469
0,0,0.781094
0,0,0.768334
0,0,0.776771
0,0,0.821979
0,0,0.781146
0,0,0.767708
0,0,0.770729
0,0,0.793385
0,0,0.763698
0,0,0.771562
0,0,0.770209
0,0,0.803385
0,0,0.766302
0,0,0.772136
0,0,0.771511
0,0,0.810937
0,0,0.800677
0,0,0.772969
2,2,0.774271
0,0,0.775938
0,0,0.809011
2,2,0.771927
0,0,0.773803
0,0,0.772448
0,0,0.803646
0,0,0.768958
0,1,0.775365
0,0,0.776041
0,0,0.784375
0,0,0.772188
0,0,0.7775
0,0,0.772917
2,2,0.772709
2,2,0.802448
0,0,0.768646
1,1,0.773958
0,0,0.771562
0,0,0.814896
0,0,0.782188
0,0,0.780417
0,0,0.775469
0,0,0.792552
0,0,0.770208
0,0,0.771823
0,0,0.806302
1,1,0.808178
0,0,0.770729
0,0,0.764636
0,0,0.772657
0,0,0.772552
0,0,0.821042
0,0,0.777031
0,0,0.770573
0,0,0.768959
0,0,0.796406
0,0,0.769792
0,0,0.764323
0,0,0.772396
0,0,0.786979
0,0,0.766875
0,0,0.764896
0,0,0.774271
0,0,0.775
0,0,0.800938
0,0,0.770312
1,1,0.772448
0,0,0.779896
0,0,0.795209
0,0,0.774636
0,0,0.760886
0,0,0.765937
0,0,0.81349
0,0,0.770417
0,0,0.765781
2,2,0.809167
0,0,0.799895
0,0,0.76401
0,0,0.764583
0,0,0.768646
0,0,0.766615
0,0,0.800938
0,0,0.768282
0,0,0.767344
0,0,0.766823
0,0,0.788802
0,0,0.765469
0,0,0.767501
0,0,0.773802
0,0,0.81151
0,0,0.771094
0,0,0.769583
0,0,0.768125
0,0,0.769636
0,0,0.796823
0,0,0.766458
1,0,0.781041
2,2,0.775312
0,0,0.825053
0,0,0.773906
0,0,0.7675
0,0,0.776458
0,0,0.798177
1,1,0.764896
2,2,0.7675
0,0,0.812448
0,0,0.810313
0,0,0.76875
0,0,0.772552
0,0,0.769375
0,0,0.778073
0,0,0.791094
0,0,0.769844
0,0,0.776615
0,0,0.773073
0,0,0.807761
0,0,0.777605
0,0,0.770105
1,0,0.770937
0,0,0.800937
0,0,0.770416
0,0,0.771406
0,0,0.770104
0,0,0.811302
0,0,0.768698
0,0,0.775678
0,0,0.774479
0,0,0.771354
0,0,0.792552
0,0,0.776355
0,0,0.768333
2,2,0.772761
0,0,0.788906
0,0,0.772708
0,0,0.771042
0,0,0.810573
0,1,0.791354
1,1,0.774896
0,0,0.779219
0,0,0.770834
0,0,0.816979
0,0,0.767865
0,0,0.773125
0,0,0.768125
2,2,0.769843
0,0,0.791615
0,0,0.768177
0,0,0.78276
0,0,0.769479
2,2,0.818229
0,0,0.779063
0,0,0.774271
0,0,0.766667
0,0,0.804792
0,0,0.778542
0,0,0.77349
2,2,0.771459
0,0,0.790156
1,1,0.768385
0,0,0.768125
0,0,0.777917
3,2,0.769844
2,2,0.802969
0,0,0.772188
0,0,0.777812
2,2,0.810781
0,0,0.802552
0,0,0.783334
0,0,0.766614
2,2,0.770416
0,0,0.791511
0,0,0.764739
0,0,0.771459
0,0,0.780469
0,0,0.806927
0,0,0.769115
0,0,0.770052
0,0,0.765729
0,0,0.769115
0,0,0.813698
0,0,0.7725
0,0,0.772083
1,1,0.76849
3,3,0.797135
0,0,0.765677
0,0,0.772553
1,1,0.781354
0,0,0.801667
2,2,0.775469
2,2,0.77224
0,0,0.775886
0,0,0.774584
0,0,0.807656
0,0,0.782604
0,0,0.769532
0,0,0.773438
0,0,0.800521
2,2,0.77323
0,0,0.772344
0,0,0.773438
0,0,0.816094
0,0,0.783229
0,0,0.772864
0,0,0.766562
0,0,0.80125
0,0,0.770417
0,0,0.769323
0,0,0.770468
0,0,0.77901
0,0,0.768073
0,0,0.766302
2,2,0.767969
0,0,0.772292
0,0,0.790052
0,0,0.765469
0,0,0.768698
2,2,0.765052
0,0,0.797396
0,0,0.767031
0,0,0.773438
2,3,0.771667
0,0,0.789896
0,0,0.783646
0,0,0.772709
0,0,0.81125
0,0,0.774063
0,0,0.82125
0,0,0.77073
0,0,0.777239
0,0,0.775625
0,0,0.802396
0,0,0.768281
0,0,0.77474
0,0,0.763542
0,0,0.820157
2,2,0.78
0,0,0.779948
0,0,0.766823
0,0,0.790209
0,0,0.766771
0,0,0.768021
0,0,0.767344
0,0,0.767968
0,0,0.81125
0,0,0.771771
2,2,0.772291
0,0,0.767343
3,3,0.800677
0,0,0.76849
0,0,0.769688
0,0,0.76849
0,0,0.809063
0,0,0.771563
0,0,0.767187
0,0,0.803385
0,0,0.805833
0,0,0.770677
0,0,0.766563
0,0,0.770365
0,0,0.766667
0,0,0.796823
0,0,0.765938
0,0,0.768907
0,0,0.769739
0,0,0.786666
0,0,0.770885
0,0,0.765782
0,0,0.770521
0,0,0.79823
0,0,0.778229
0,0,0.776146
0,0,0.772604
0,0,0.768073
0,0,0.787031
0,0,0.774115
0,0,0.76974
0,0,0.779219
0,0,0.814584
0,0,0.767344
0,0,0.772864
0,0,0.772396
2,2,0.800625
0,0,0.767812
0,0,0.793125
0,0,0.822396
0,0,0.800312
0,0,0.768177
0,0,0.769375
0,0,0.769375
0,0,0.770157
2,2,0.814844
0,0,0.770417
0,0,0.773177
0,0,0.773698
0,0,0.797969
0,0,0.770208
0,0,0.770469
0,0,0.782501
1,1,0.802188
0,0,0.772188
0,0,0.769636
0,0,0.782292
0,0,0.815834
0,0,0.776406
0,0,0.775104
0,0,0.77073
0,0,0.770313
0,0,0.798542
1,1,0.771562
0,0,0.771251
0,0,0.772188
0,0,0.801198
0,0,0.778802
0,0,0.769218
0,0,0.809635
0,0,0.822708
0,0,0.777031
0,0,0.775
0,0,0.770938
0,0,0.817396
0,0,0.772031
0,0,0.770468
1,1,0.769323
0,0,0.774114
0,0,0.824271
1,1,0.769948
0,0,0.776719
0,1,0.773646
0,0,0.813282
0,0,0.778177
0,0,0.771562
0,0,0.775938
0,0,0.819531
0,0,0.780104
0,0,0.774167
0,0,0.764271
0,0,0.805886
0,0,0.770625
2,2,0.773177
0,0,0.771875
0,0,0.772448
0,0,0.795729
0,0,0.775573
0,0,0.769635
0,0,0.809375
0,0,0.819271
2,2,0.767187
0,0,0.767969
0,0,0.766719
2,2,0.794011
0,0,0.772448
0,0,0.781771
0,0,0.768021
0,0,0.816094
0,0,0.768907
0,0,0.801354
0,0,0.766459
0,0,0.81625
2,2,0.77401
0,0,0.771771
0,0,0.774583
0,0,0.774375
0,0,0.811927
0,0,0.775729
0,0,0.771198
0,0,0.881406
0,0,0.794739
0,0,0.772864
0,0,0.780885
0,0,0.771042
0,0,0.805105
0,0,0.773907
0,0,0.769114
0,0,0.814115
0,0,0.810938
0,0,0.772605
0,0,0.767292
0,0,0.771354
0,0,0.809844
0,0,0.768958
0,0,0.776823
0,0,0.787188
0,0,0.772604
0,0,0.807084
0,0,0.772917
2,2,0.77625
2,2,0.76599
0,0,0.793854
0,0,0.788177
0,0,0.773177
0,0,0.771562
0,0,0.793438
0,0,0.778907
0,0,0.764375
0,0,0.774948
0,0,0.803906
0,0,0.775209
0,0,0.768802
2,2,0.765312
0,0,0.769792
0,0,0.80125
0,0,0.779063
0,0,0.771198
0,0,0.818802
2,2,0.828646
0,0,0.772448
0,0,0.768073
0,0,0.772031
0,0,0.807864
0,0,0.769323
0,0,0.766042
0,0,0.767448
0,0,0.792032
0,0,0.767448
0,0,0.770157
0,0,0.76974
0,0,0.764844
0,0,0.810573
0,0,0.764896
0,0,0.768594
0,0,0.769948
0,0,0.800626
0,0,0.765625
0,0,0.764427
0,0,0.767656
0,0,0.796458
0,0,0.770886
0,0,0.776615
0,0,0.774219
0,0,0.779427
0,0,0.821979
0,0,0.773698
0,0,0.779375
0,0,0.817187
0,0,0.808542
0,0,0.778021
2,2,0.770781
0,0,0.781302
0,0,0.803334
2,2,0.77
0,0,0.775782
0,0,0.773125
0,0,0.794167
0,0,0.770989
0,0,0.761667
0,0,0.773437
0,0,0.765156
0,0,0.772031
0,0,0.769583
1,1,0.766302
0,0,0.768906
0,0,0.790833
0,0,0.778802
0,0,0.77927
0,0,0.766563
0,0,0.812761
0,0,0.773646
2,2,0.77276
0,0,0.7725
0,0,0.799948
0,0,0.771458
0,0,0.771927
0,0,0.767292
0,0,0.806146
0,0,0.78875
0,0,0.773281
0,0,0.788698
0,0,0.777448
0,0,0.795885
0,0,0.773385
0,0,0.773542
0,0,0.772917
0,0,0.815313
0,0,0.771198
0,0,0.77375
0,0,0.769427
0,0,0.786354
0,0,0.775729
0,0,0.779479
0,0,0.769167
1,1,0.808645
0,0,0.839531
0,0,0.767604
0,0,0.771563
0,0,0.77125
2,2,0.803177
0,0,0.776146
0,0,0.771928
0,0,0.767605
0,0,0.812396
0,0,0.768177
0,0,0.765834
0,0,0.769115
0,0,0.831407
0,0,0.77224
1,1,0.775365
0,0,0.768282
0,0,0.76625
0,0,0.798125
0,0,0.773333
0,0,0.772968
0,0,0.770625
0,1,0.796823
0,0,0.769271
0,0,0.770573
0,0,0.772865
0,0,0.806667
0,0,0.771302
1,1,0.770833
0,0,0.776667
0,0,0.797136
0,0,0.770573
0,0,0.773803
0,0,0.770364
0,0,0.77276
0,0,0.798906
0,0,0.767605
0,0,0.7675
0,0,0.779583
0,0,0.787136
0,0,0.770834
0,0,0.77
0,0,0.80349
0,0,0.804063
2,2,0.776302
0,0,0.769583
0,0,0.773854
2,2,0.8075
0,0,0.774531
0,0,0.768438
0,0,0.767396
1,0,0.771823
0,0,0.812084
0,0,0.766406
0,0,0.77276
0,0,0.77901
0,0,0.807136
0,0,0.767552
2,2,0.770104
0,0,0.766407
0,0,0.784791
0,0,0.765156
0,0,0.771667
0,0,0.77
0,0,0.770886
1,2,0.797448
0,0,0.766458
0,0,0.775729
0,0,0.763803
0,0,0.801145
0,0,0.764323
0,0,0.767761
0,0,0.802448
1,1,0.789636
0,0,0.765677
0,0,0.764271
0,0,0.767864
0,0,0.803385
0,0,0.76875
0,0,0.765989
0,0,0.766406
0,0,0.764271
0,0,0.814271
0,0,0.763281
0,0,0.765938
0,0,0.764895
0,0,0.794323
0,0,0.766875
0,0,0.765625
0,0,0.772708
0,0,0.785625
0,0,0.77
2,2,0.771042
2,3,0.768333
0,0,0.764792
0,0,0.810365
0,0,0.795782
0,0,0.770989
0,0,0.767135
2,2,0.794791
0,0,0.766666
0,0,0.765469
0,0,0.803177
1,1,0.819948
0,0,0.768646
2,2,0.767708
2,2,0.767344
0,0,0.800052
0,0,0.767084
0,0,0.766355
0,0,0.782188
0,0,0.770782
2,2,0.803489
0,0,0.772031
0,0,0.769479
1,1,0.765782
0,0,0.785573
0,0,0.782604
0,0,0.770625
0,0,0.766771
0,0,0.799063
0,0,0.766771
2,2,0.769427
0,0,0.773333
0,0,0.784792
0,0,0.777031
0,0,0.77375
0,0,0.769688
0,0,0.769115
0,0,0.818594
0,0,0.781042
0,0,0.768177
0,0,0.792136
0,0,0.799896
0,0,0.767344
0,0,0.762865
0,0,0.772344
0,0,0.811667
2,2,0.763386
0,0,0.770729
0,0,0.772604
0,0,0.774584
0,0,0.791094
0,0,0.776041
0,0,0.779323
2,2,0.771302
0,0,0.817604
0,0,0.766823
0,0,0.769323
0,0,0.769323
0,0,0.798333
0,0,0.773489
0,0,0.768333
0,0,0.76698
0,0,0.821667
0,0,0.769115
0,0,0.769218
0,0,0.77026
0,0,0.773125
0,0,0.809844
0,0,0.767344
0,0,0.766198
0,0,0.811146
0,0,0.819844
0,0,0.772761
2,2,0.769271
3,3,0.76552
2,2,0.784479
0,0,0.767552
0,0,0.772136
0,0,0.77099
0,0,0.855365
0,0,0.770261
0,0,0.771146
0,0,0.775573
0,0,0.771458
0,0,0.79375
0,0,0.768333
0,0,0.768593
0,0,0.767135
0,0,0.809271
0,0,0.765313
0,0,0.773229
0,0,0.767604
0,0,0.803646
0,0,0.771667
0,0,0.77151
0,0,0.775573
0,0,0.80375
0,0,0.771198
0,0,0.772761
0,0,0.765001
0,0,0.815052
1,1,0.817709
0,0,0.768437
0,0,0.774739
0,0,0.768542
0,0,0.808594
0,4,0.776042
0,0,0.77125
0,0,0.765625
0,0,0.792552
2,2,0.774844
2,2,0.775833
0,0,0.76349
0,0,0.818125
2,2,0.770052
0,0,0.764844
0,0,0.772709
0,0,0.765677
0,0,0.79948
0,0,0.765677
0,0,0.766354
0,0,0.766667
0,0,0.800937
0,0,0.766771
0,0,0.764896
0,0,0.774531
2,2,0.786042
0,0,0.769688
0,0,0.764844
0,0,0.80724
0,0,0.765364
0,0,0.793594
0,0,0.764375
0,0,0.766875
0,0,0.769792
0,0,0.796667
0,0,0.771719
0,0,0.765053
0,0,0.768542
0,0,0.805
0,0,0.775416
0,0,0.769114
0,0,0.767865
0,0,0.793073
1,0,0.768073
0,0,0.765938
2,2,0.764635
0,0,0.773178
0,0,0.795209
0,0,0.784271
2,2,0.782187
0,0,0.776771
2,2,0.789792
0,0,0.774792
0,0,0.78724
0,0,0.77625
0,0,0.80375
0,0,0.770157
0,0,0.769896
0,0,0.807187
0,0,0.78927
0,0,0.777031
0,0,0.768958
0,0,0.769323
0,0,0.768854
0,0,0.822656
0,0,0.761771
0,0,0.767031
0,0,0.783907
0,0,0.795573
0,0,0.768698
0,0,0.765938
1,0,0.766407
0,0,0.794583
0,0,0.765312
0,0,0.776823
0,0,0.76849
0,0,0.766615
0,0,0.7825
0,0,0.766302
0,0,0.768073
0,0,0.772448
1,0,0.807552
0,0,0.768229
0,0,0.767604
0,0,0.767448
0,0,0.803907
0,0,0.768334
0,0,0.773385
0,0,0.798385
0,0,0.807917
0,0,0.766823
0,0,0.776771
0,0,0.766406
0,0,0.771718
0,0,0.803541
0,0,0.768594
0,0,0.765313
0,0,0.7775
0,0,0.803385
0,0,0.777292
0,0,0.773646
0,0,0.773178
0,0,0.792396
2,2,0.768126
0,0,0.764427
2,2,0.77823
0,0,0.800625
0,0,0.768125
0,0,0.770781
0,0,0.765208
0,0,0.766406
0,0,0.781406
0,0,0.774375
2,2,0.774271
0,0,0.770052
0,0,0.813854
0,0,0.775261
0,0,0.771771
0,0,0.813281
2,2,0.810364
0,0,0.768646
0,0,0.764532
0,0,0.766511
0,0,0.770729
0,0,0.784167
0,0,0.772605
0,0,0.769896
0,0,0.766771
2,2,0.805886
0,0,0.76599
0,0,0.767761
0,0,0.76974
2,2,0.800782
0,0,0.768385
0,0,0.776198
1,1,0.771302
0,0,0.784896
0,0,0.770104
0,0,0.771667
0,0,0.76599
0,0,0.768125
0,0,0.808541
0,0,0.770781
0,0,0.76974
0,0,0.764532
2,2,0.7975
0,0,0.773021
0,0,0.772812
0,0,0.82
0,0,0.808386
0,0,0.763854
0,0,0.772344
0,0,0.766771
0,0,0.784011
0,0,0.76599
0,0,0.767448
0,0,0.7725
0,0,0.76448
0,0,0.799896
0,0,0.766979
0,0,0.765625
0,0,0.766198
0,0,0.785521
0,0,0.763542
1,1,0.767969
0,0,0.764896
0,0,0.807709
0,0,0.771146
0,0,0.764323
0,0,0.776145
0,0,0.764479
0,0,0.807396
0,0,0.766615
2,2,0.766042
0,0,0.768177
0,0,0.783802
0,0,0.768334
0,0,0.814219
0,0,0.765782
2,2,0.784479
0,0,0.764271
0,0,0.767448
0,0,0.762969
0,0,0.77599
0,0,0.805521
0,0,0.764687
0,0,0.765312
0,0,0.764115
0,0,0.789688
0,0,0.765521
2,2,0.770573
0,0,0.76526
1,1,0.81073
0,0,0.765
1,1,0.763281
0,0,0.780364
0,3,0.812761
0,0,0.779792
0,0,0.764375
0,0,0.765104
0,0,0.765833
0,0,0.806042
0,0,0.76802
0,0,0.772344
0,0,0.767656
0,0,0.790521
0,0,0.762604
0,0,0.80625
0,0,0.764531
0,0,0.797188
0,0,0.771459
0,0,0.775104
0,0,0.767604
0,0,0.793334
0,0,0.767552
0,0,0.768073
0,0,0.763542
0,0,0.774375
0,0,0.80974
0,0,0.766562
2,2,0.765208
0,0,0.765833
0,0,0.796093
1,1,0.770104
0,0,0.770208
0,0,0.76802
0,0,0.796927
0,0,0.773021
0,0,0.769896
0,0,0.767813
0,0,0.771094
0,0,0.786302
0,0,0.778698
0,0,0.771615
0,0,0.768958
0,0,0.800208
0,0,0.77224
0,0,0.80526
0,0,0.774375
0,0,0.789375
0,0,0.781094
0,0,0.769219
0,0,0.768021
0,0,0.812552
1,1,0.787968
0,0,0.772083
0,0,0.767552
0,0,0.766406
0,0,0.865521
0,0,0.770885
0,0,0.767656
0,0,0.768802
0,0,0.799062
0,0,0.7675
0,0,0.770625
0,0,0.775885
0,0,0.800469
0,0,0.768334
0,0,0.779115
0,0,0.765729
0,0,0.792553
0,0,0.767968
0,0,0.767969
0,0,0.771041
0,0,0.767605
0,0,0.797708
0,0,0.766303
0,0,0.805521
0,0,0.764427
0,0,0.823959
0,0,0.769896
0,0,0.765625
0,0,0.768229
0,0,0.798073
0,0,0.764531
0,0,0.767032
0,0,0.771302
0,0,0.765885
0,0,0.795885
0,0,0.761302
0,0,0.767813
0,0,0.767395
2,2,0.798385
2,2,0.766198
0,0,0.775313
0,0,0.768334
0,0,0.796511
0,0,0.766615
0,0,0.764948
0,0,0.765573
0,0,0.814792
0,0,0.769948
2,2,0.769844
0,0,0.778594
0,0,0.767864
0,0,0.829427
0,0,0.777812
0,0,0.806876
0,0,0.769792
0,0,0.81724
2,2,0.766042
0,0,0.775886
0,0,0.771041
0,0,0.791145
0,0,0.775312
0,0,0.764687
0,0,0.775
0,0,0.793385
0,0,0.772552
0,0,0.763959
0,0,0.768021
0,0,0.769375
0,0,0.801771
0,0,0.771562
0,0,0.767239
0,0,0.765
0,0,0.785885
0,0,0.766042
2,2,0.767864
0,0,0.765052
2,2,0.812761
0,0,0.777865
0,0,0.767865
0,0,0.767292
0,0,0.765104
0,0,0.789428
2,2,0.801823
0,0,0.774376
0,0,0.765729
0,0,0.806563
0,0,0.766667
0,0,0.768125
2,2,0.769843
0,0,0.791771
0,0,0.778282
2,2,0.770781
0,0,0.778854
0,0,0.803385
2,2,0.768854
0,0,0.767396
0,0,0.77625
0,0,0.775677
0,0,0.805833
0,0,0.776563
0,0,0.772396
0,0,0.774375
0,0,0.820833
0,0,0.779479
0,0,0.770729
0,0,0.768386
0,0,0.814792
0,0,0.77375
0,0,0.767761
0,0,0.771928
0,0,0.794375
0,0,0.767761
0,0,0.808021
0,0,0.766511
0,0,0.767448
0,0,0.78349
2,2,0.773489
0,0,0.76375
0,0,0.768125
0,0,0.810416
0,0,0.769219
1,1,0.77474
0,0,0.768594
0,0,0.796042
0,0,0.771406
0,0,0.770833
0,0,0.769166
0,0,0.803281
0,0,0.775208
0,0,0.770105
2,0,0.771562
0,0,0.765833
0,0,0.801198
0,0,0.76651
0,0,0.767448
3,3,0.7775
0,0,0.786511
0,0,0.77198
0,0,0.769375
0,0,0.768438
0,0,0.797188
0,0,0.774376
0,0,0.815157
0,0,0.772396
0,0,0.77177
0,0,0.79401
0,0,0.779791
0,0,0.774531
0,0,0.767344
0,0,0.798125
0,0,0.774011
2,2,0.76651
0,0,0.767239
0,0,0.811511
0,0,0.766041
2,2,0.777448
0,0,0.768125
0,0,0.804062
0,0,0.765729
0,0,0.770521
2,2,0.7725
2,2,0.774271
0,0,0.805468
0,0,0.767448
0,0,0.768386
0,0,0.768333
0,0,0.794844
0,0,0.772604
0,0,0.777761
0,0,0.776876
0,0,0.813125
0,0,0.772761
0,0,0.808541
0,0,0.772604
1,1,0.802031
0,0,0.776146
0,0,0.76875
2,2,0.767396
0,0,0.772917
0,0,0.812448
0,0,0.772343
1,1,0.770417
0,0,0.768125
0,0,0.800052
0,0,0.775521
0,0,0.776979
0,0,0.770573
1,1,0.787604
0,0,0.770834
0,0,0.769792
0,0,0.766459
0,0,0.773646
0,0,0.77375
0,0,0.770938
1,1,0.775313
0,0,0.7775
0,0,0.823073
0,0,0.777188
0,0,0.786562
0,0,0.774479
0,0,0.793802
0,0,0.777813
0,0,0.811979
0,0,0.773698
0,0,0.82276
0,0,0.774219
0,0,0.760521
0,0,0.777136
0,0,0.797083
0,0,0.767865
2,2,0.774375
0,0,0.772396
3,3,0.77224
0,0,0.817709
0,0,0.772708
0,0,0.770781
0,0,0.769062
0,0,0.793594
0,0,0.772396
0,0,0.772709
0,0,0.770937
0,0,0.799219
0,0,0.768073
0,0,0.767969
0,0,0.77073
0,0,0.774375
0,0,0.804011
0,0,0.785729
0,0,0.771667
0,0,0.769791
0,0,0.81276
0,0,0.77724
0,0,0.806719
0,0,0.778073
2,2,0.802135
0,0,0.769583
0,0,0.762188
0,1,0.767292
0,1,0.784688
0,0,0.773333
0,0,0.772031
0,0,0.769271
0,0,0.775469
3,3,0.796406
3,3,0.776042
0,0,0.767344
0,0,0.775
0,0,0.812917
3,3,0.766511
0,0,0.76698
0,0,0.768073
0,0,0.788177
0,0,0.767031
0,0,0.775261
2,2,0.76651
0,0,0.813282
0,0,0.776875
0,0,0.768021
0,0,0.770261
0,0,0.767031
0,0,0.815886
0,0,0.809167
0,0,0.768646
0,0,0.772084
0,0,0.793542
0,0,0.770208
0,0,0.773229
0,0,0.771875
0,0,0.799792
0,0,0.773594
0,0,0.769479
0,0,0.779479
0,0,0.804792
0,0,0.777136
0,0,0.770885
0,0,0.76849
0,0,0.770938
0,0,0.796563
0,0,0.766927
0,0,0.769271
0,0,0.778178
0,0,0.810521
0,0,0.775833
0,0,0.766771
2,2,0.770833
0,0,0.797761
0,0,0.77125
0,0,0.77349
0,0,0.766979
0,0,0.768281
0,0,0.794167
0,0,0.801198
0,0,0.783073
0,0,0.784844
0,0,0.813907
0,0,0.770781
0,0,0.769011
0,0,0.766145
0,0,0.8075
0,0,0.774062
0,0,0.76823
0,0,0.772135
0,0,0.788021
0,0,0.768073
0,0,0.768021
2,2,0.77026
0,0,0.768854
2,2,0.812969
0,0,0.777032
0,0,0.768386
0,0,0.766927
0,0,0.803958
0,0,0.769584
0,0,0.768698
0,0,0.771354
0,0,0.788854
0,0,0.768386
0,0,0.771042
2,2,0.775625
0,0,0.7875
0,0,0.771823
0,0,0.808125
0,0,0.76651
0,2,0.775521
0,0,0.803802
0,0,0.769479
0,0,0.767083
0,0,0.768125
2,2,0.791667
0,0,0.766407
0,0,0.767916
1,1,0.771928
0,1,0.825312
0,0,0.76974
0,0,0.770781
0,0,0.774376
0,0,0.801042
0,0,0.781927
2,2,0.774063
0,1,0.773334
0,0,0.765417
0,0,0.818854
0,0,0.785209
0,0,0.773698
0,0,0.771146
0,0,0.794167
0,0,0.770312
0,0,0.767604
0,0,0.768958
0,0,0.805781
0,0,0.77125
0,0,0.820626
0,0,0.784531
2,2,0.800625
0,0,0.772187
0,0,0.776146
0,0,0.765677
0,0,0.773282
2,2,0.816146
2,2,0.767605
0,0,0.767656
0,0,0.770417
2,2,0.807969
0,0,0.77
0,0,0.772865
0,0,0.768906
0,0,0.833958
0,0,0.76823
0,0,0.771615
1,1,0.773542
0,0,0.791406
0,0,0.771718
0,0,0.778489
0,0,0.765209
0,0,0.768489
0,0,0.80776
0,0,0.772187
0,0,0.771667
0,0,0.770573
0,0,0.916771
0,0,1.502865
2,2,0.995469
2,2,1.030573
0,0,0.975677
0,0,0.954375
0,0,1.031355
0,0,1.007864
0,0,1.023126
2,2,1.052448
0,0,0.963229
0,0,0.975
0,0,0.955261
0,0,1.011354
0,0,0.940469
0,0,0.943386
0,0,0.98651
0,0,0.94401
0,0,0.943177
0,0,0.944635
0,0,0.985938
0,0,0.936302
0,0,0.937864
0,0,0.981928
0,0,0.946563
0,0,0.937552
0,0,0.94323
0,0,0.97823
2,2,0.958021
0,0,0.94198
0,0,0.972552
1,1,1.005052
0,0,0.946563
0,0,0.931146
0,0,0.979271
0,0,0.958073
0,0,0.939323
0,0,0.968333
0,0,0.93875
0,0,0.945833
0,0,0.960417
0,0,0.968854
0,0,0.93974
0,0,0.94849
0,0,0.975157
0,0,0.949896
0,0,0.939167
2,2,0.944635
0,0,0.983906
2,2,0.936771
0,0,0.943177
0,0,0.993959
0,0,0.940937
0,0,0.936041
0,0,0.969375
2,2,0.959427
0,0,0.953803
0,0,0.944636
3,3,0.981771
0,0,0.979427
0,0,0.950261
0,0,1.049479
1,1,0.962605
0,0,0.939948
0,0,0.941198
0,0,1.03099
1,1,0.951354
0,0,0.953802
0,0,1.007188
0,0,0.949792
0,0,1.079011
0,0,1.00573
0,0,0.943073
0,0,0.93375
0,0,0.9425
0,0,0.976042
1,2,0.957553
0,0,0.935885
1,1,1.000885
3,0,0.94401
0,0,0.945416
0,0,0.946458
0,0,0.994167
0,0,0.945469
0,0,0.942656
0,0,1.012657
0,0,0.964583
0,0,0.940781
0,0,0.942708
0,0,0.993541
0,0,0.958177
0,0,0.986042
0,0,0.983646
1,1,0.94474
0,0,0.948281
0,0,0.976407
0,0,0.947761
3,3,0.949375
0,0,0.954167
0,0,1.010052
0,0,0.934896
0,0,0.940729
0,0,1.002605
0,0,0.94651
0,0,0.942084
2,2,0.937344
0,0,1.041771
1,1,0.940781
0,0,0.937761
0,0,0.995365
0,0,0.944323
0,0,0.938802
0,0,0.940052
0,0,0.984271
0,0,0.938385
0,0,0.93875
0,0,0.991146
0,0,0.95573
2,2,0.938594
0,0,0.941407
0,0,0.984635
0,0,0.999167
0,0,0.948489
0,0,0.974688
0,0,0.931823
0,0,0.944375
0,0,0.937343
0,0,1.012553
0,0,0.93974
0,0,0.951354
0,0,1.001927
0,0,0.94474
0,0,0.93224
0,0,1.002656
0,0,0.94599
0,0,0.938281
0,0,0.934635
0,0,1.001458
2,2,0.941094
0,0,0.943438
0,0,1.006303
0,0,0.955364
0,0,0.9425
0,0,0.942761
0,0,0.980365
2,2,0.960052
2,2,0.942552
0,0,1.016406
0,0,0.943282
0,0,0.962969
0,0,0.943333
0,0,1.071198
0,0,0.953334
0,0,0.949062
0,0,0.968907
0,0,0.948646
0,0,0.940678
0,0,0.94724
0,0,0.991511
0,0,0.942501
0,0,0.947396
0,0,1.000833
0,0,0.936823
0,0,0.945209
0,0,0.965417
2,2,0.976771
2,2,0.93724
2,2,0.94
0,0,1.022291
0,0,0.945209
0,0,0.934844
0,0,1.010416
0,0,0.949323
0,0,0.944115
0,0,0.934531
0,0,1.007916
0,0,0.965
0,0,0.947135
0,0,0.981823
0,0,0.940625
1,1,1.001094
0,0,0.946823
0,0,1.001198
0,0,0.937708
0,0,0.943437
0,0,0.998229
1,1,0.938542
0,0,0.954531
2,2,0.948906
0,0,1.011459
0,0,0.943438
0,0,0.938698
0,0,1.020365
0,0,0.944063
2,2,0.936198
1,1,0.934687
0,0,0.981511
0,0,0.951302
0,0,0.95
0,0,0.984323
0,0,0.944427
0,0,0.943281
0,0,0.938281
0,0,1.018229
0,0,0.949375
0,0,0.932344
0,0,0.961562
0,0,0.938125
0,0,0.950521
0,0,1.026979
0,0,0.997605
0,0,0.956771
0,0,0.938281
0,0,0.995625
0,0,0.949844
0,0,0.950677
0,0,0.961823
0,0,0.941146
0,0,0.945573
0,0,0.960885
0,0,0.992917
0,0,0.938594
0,0,0.936979
0,0,1.000573
0,0,0.940833
0,0,0.94099
0,0,0.94724
0,0,0.996928
0,0,0.928282
3,3,0.941511
0,0,1.000417
0,0,0.953177
0,0,0.949167
0,0,0.947031
0,0,1.008386
0,0,0.945156
0,0,0.935104
0,0,0.988646
0,0,0.936042
0,0,0.95875
0,0,0.996823
0,0,0.985573
0,0,0.933698
0,0,0.945886
0,0,1.039219
0,0,0.939896
0,0,0.947917
0,0,1.013594
0,0,0.938646
0,0,0.93875
0,0,0.950052
0,0,1.026146
0,0,0.948021
0,0,0.947917
0,0,1.009271
0,0,0.955625
0,0,0.934427
0,0,0.958281
0,0,0.985729
2,2,0.944844
2,2,0.957031
0,0,0.988177
0,0,0.951094
0,1,0.944323
0,0,0.939791
0,0,0.983229
2,2,0.955469
0,0,0.945469
0,0,0.981406
0,0,0.937865
0,0,1.01474
0,0,0.945937
0,0,1.034844
0,0,0.950209
0,0,0.953854
0,0,0.985469
0,0,0.949532
0,0,0.944531
0,0,1.00724
0,0,0.948073
0,0,0.943021
0,0,0.933907
0,0,0.991875
0,0,0.932761
0,0,0.938229
0,0,0.990521
0,0,0.943334
0,0,0.950625
0,0,0.9425
2,2,0.976823
0,0,0.959583
0,0,0.939896
0,0,1.018333
0,0,0.944636
0,0,0.965937
0,0,0.94125
0,0,0.998021
0,0,0.944792
0,0,0.943646
0,0,0.980052
0,0,0.997136
0,0,0.946771
0,0,0.953489
0,0,0.970469
0,0,0.952553
0,0,0.946771
0,0,1.014115
0,0,0.944323
0,0,0.947291
0,0,0.941354
0,0,0.991042
0,0,0.938386
0,0,0.938646
0,0,1.031875
2,2,0.947395
0,0,0.953594
0,0,0.982448
0,0,0.949584
0,0,0.942761
0,0,0.933958
2,2,0.971927
0,0,0.962917
0,0,0.935989
0,0,0.988646
0,0,0.947135
0,0,0.939376
0,0,0.942501
0,0,0.99625
0,0,0.94349
0,0,1.01125
0,0,0.971667
1,1,0.934427
0,0,0.947136
0,0,0.944219
0,0,1.01599
0,0,0.941615
0,2,0.94276
2,2,1.014271
0,0,0.955677
0,0,0.956563
1,1,0.955052
2,2,0.995833
0,1,0.960364
0,0,0.940833
0,0,0.973854
3,3,0.953386
2,2,0.946406
0,0,0.943855
0,2,0.993541
0,0,0.951093
1,1,0.959532
0,0,0.975313
0,0,0.952292
0,0,0.948385
0,0,0.998333
0,0,0.953594
0,0,0.942864
0,0,0.938021
2,2,1.010365
0,0,0.991875
1,1,0.941406
0,0,0.989063
0,0,0.939323
0,0,0.932708
0,0,0.942343
0,0,1.001771
0,0,0.946302
0,0,0.939479
1,1,1.01375
0,0,0.943802
2,2,0.942916
3,3,0.94448
0,0,0.996458
0,0,0.937083
0,0,0.944896
0,0,1.013073
0,0,0.959375
0,0,0.932396
0,0,0.939844
0,0,1.0
0,0,0.948073
2,2,0.937969
0,0,1.00474
0,0,0.945625
0,0,0.964062
0,0,0.937812
2,2,0.970417
0,0,0.949062
0,0,0.946615
2,2,1.052396
0,1,0.948229
0,0,0.948959
0,0,1.004375
0,0,0.945885
0,0,0.939219
0,0,0.942344
1,1,1.031614
0,0,0.949375
0,0,0.941667
2,2,1.007448
0,0,0.952813
0,0,0.937917
0,0,0.939271
0,0,0.983698
0,0,0.954219
0,0,0.938958
0,0,0.963073
0,0,0.950885
0,0,0.955834
0,0,0.93625
0,0,1.004167
0,0,0.944792
0,0,0.942552
0,0,0.973646
0,0,0.940573
0,0,0.943334
0,0,0.950052
0,0,1.034636
0,0,0.943021
2,2,1.022292
2,2,0.992969
0,0,0.941042
0,0,0.933229
1,1,0.956458
0,0,0.96974
0,0,0.936719
0,0,0.947448
0,0,1.000469
0,0,0.936563
0,0,0.948437
0,0,1.080521
0,0,0.950417
0,0,0.937344
0,0,0.937813
0,0,0.976042
2,2,0.943593
0,0,0.945729
0,0,1.0
0,0,0.940625
0,0,0.958698
0,0,0.935729
0,0,1.003021
0,0,0.949376
2,2,0.945989
0,0,0.998281
0,0,0.95
0,0,0.94224
0,0,0.950521
0,0,0.985573
0,0,0.992396
0,0,0.952396
1,1,1.008541
0,0,0.951146
0,0,0.94099
0,0,0.944792
0,0,0.998542
0,0,0.94401
0,0,0.945
0,0,1.021667
0,0,0.951354
0,0,0.937135
0,0,1.01
0,0,0.940469
0,0,0.950729
0,0,0.939375
0,0,0.981145
0,0,0.941927
0,0,0.952032
0,0,0.989323
0,0,0.950886
0,0,0.945678
0,0,0.959063
0,0,1.000365
0,0,0.942657
0,0,0.946823
2,2,0.975885
0,0,0.932865
0,0,0.948333
0,0,1.018281
0,0,1.033021
0,0,0.934739
0,0,0.950104
0,0,1.002136
0,0,0.936979
0,0,0.942032
0,0,0.948958
2,2,1.002604
0,0,0.949115
0,0,0.936823
0,0,0.975781
0,1,0.951979
0,0,0.938438
0,0,0.946146
0,3,1.008698
0,0,0.947448
0,0,0.940573
0,0,0.992865
0,0,0.959427
0,0,0.9525
0,0,1.016667
0,0,0.950157
0,0,0.954427
0,0,0.944739
0,0,1.017344
0,0,0.942031
0,0,0.949271
0,0,1.001615
0,0,0.93651
0,0,0.998385
0,0,0.9425
0,0,0.980729
0,0,0.947344
0,0,0.956563
0,0,1.010521
2,2,0.954011
2,2,0.937812
0,0,0.942761
0,0,0.976719
0,0,0.94448
0,0,0.956355
0,0,1.041406
1,1,0.946406
0,0,0.932032
0,0,0.9375
0,0,1.023229
0,0,0.959479
0,0,0.95599
0,0,0.974114
0,0,0.942187
0,0,0.955
0,0,0.993698
0,0,0.94125
0,0,0.941614
0,0,0.950261
0,0,0.993437
0,0,0.955729
2,2,0.943437
0,0,0.972604
0,0,0.995364
0,0,0.937761
0,0,0.951667
0,0,1.01224
0,0,0.950416
1,1,0.94349
0,0,1.005
0,0,0.952083
0,0,0.936302
2,2,0.953958
0,0,0.989219
0,0,0.942344
0,0,0.938802
1,1,0.970521
0,0,0.93724
2,4,0.946354
0,0,0.93651
0,0,1.005729
0,0,0.930937
0,0,0.945573
1,1,0.960157
0,0,0.94849
0,0,0.938698
0,0,0.941458
0,0,0.989844
0,0,0.947396
0,0,0.930625
0,0,1.014166
0,0,0.94099
0,0,0.950365
0,0,1.035469
0,0,0.951823
0,0,0.94349
2,2,0.952187
0,0,1.009271
0,0,0.938958
0,0,0.948333
0,0,0.990677
0,0,0.955625
0,0,0.942136
0,0,0.943541
2,2,0.976823
0,0,0.945625
0,0,0.956928
0,0,1.021719
0,0,0.966146
0,0,0.959115
0,0,0.935573
0,0,1.009948
0,0,0.955521
0,0,0.956614
0,0,0.995157
0,0,0.953229
0,0,0.947552
0,0,0.952135
0,0,0.968646
2,2,0.950938
2,2,0.949583
0,0,1.000521
0,0,0.950625
2,2,1.006094
2,2,0.98323
0,0,0.954323
0,0,0.939531
0,0,0.950416
2,2,1.005261
0,0,0.950885
0,0,0.944896
0,0,1.009531
0,0,0.942604
0,0,0.958958
0,0,0.938073
0,0,0.978229
0,0,0.937604
0,0,0.944427
0,0,0.971093
0,0,0.955417
0,0,0.944583
0,0,0.955417
0,0,1.014115
0,0,0.969792
0,0,0.93901
0,0,0.993229
0,0,0.939792
1,1,0.950052
0,0,0.953594
0,0,1.031875
0,0,0.938958
0,0,0.961928
0,0,0.993594
0,0,1.005625
0,0,0.954062
0,0,0.987917
2,2,0.946615
0,0,0.943958
0,0,0.937761
0,0,1.012344
0,0,0.952969
0,0,0.935521
0,0,0.982292
0,0,0.93974
0,0,0.941979
1,1,0.933855
0,0,0.977084
0,0,0.955208
0,0,0.94474
0,0,1.000469
0,0,0.955886
0,0,0.939219
0,0,0.938542
0,0,1.010834
1,1,0.946198
0,0,0.945417
0,0,0.993385
2,2,0.935989
0,0,0.945157
0,0,0.939062
0,0,0.985365
0,0,0.946406
1,1,1.003073
0,0,1.003385
2,2,0.954115
0,0,0.942188
0,0,0.950208
0,0,0.97448
0,0,0.965157
0,0,0.948698
0,0,1.014479
0,0,0.952656
0,0,0.950781
0,0,1.001615
0,0,0.955521
0,0,0.951927
0,0,0.945052
0,0,0.977708
0,0,0.943958
2,2,0.945573
0,0,0.994479
0,0,0.950678
2,2,0.944167
0,0,0.945885
0,0,0.983854
0,0,0.946927
0,0,0.938333
0,0,0.979896
0,0,0.940937
0,0,0.942552
0,0,0.930781
0,0,1.035052
0,0,1.013177
0,0,0.948593
0,0,0.990573
0,0,0.962552
0,0,0.941459
0,0,0.951511
0,0,1.005574
0,0,0.947084
0,0,0.9375
0,0,0.977396
0,0,0.954948
0,0,0.964636
0,0,0.939792
0,0,1.007761
0,0,0.940209
0,0,0.940782
0,0,0.996614
0,0,0.947917
0,0,0.931563
0,0,1.008281
0,2,0.935834
0,0,0.950937
3,3,0.939532
0,0,1.014896
2,2,0.933438
0,0,0.94901
0,0,0.962501
0,0,0.952448
1,0,0.934636
0,0,0.952187
0,0,1.035156
0,0,0.946823
2,2,0.949636
0,0,1.011198
0,0,0.942656
0,0,0.956302
0,0,0.944219
1,1,0.989636
0,0,0.954062
0,0,0.93599
0,0,1.026771
0,0,0.946354
0,0,0.94974
0,0,0.936563
0,0,1.005729
0,0,0.944427
0,0,0.945261
0,0,1.03849
0,0,0.94276
0,0,0.939792
0,0,0.935625
0,0,1.000885
0,0,0.95401
0,0,0.941459
0,0,0.992031
0,0,0.948281
0,0,0.943334
0,0,0.979896
0,0,0.958646
0,0,0.938907
0,0,1.003855
0,0,1.003906
0,0,0.951458
0,0,0.93151
0,0,1.011927
0,0,0.938333
0,0,0.945626
0,0,0.937292
0,0,1.00276
0,0,0.946875
0,0,0.946146
0,0,0.980157
1,0,0.93823
0,0,0.93
0,0,0.952396
0,0,0.987813
0,0,0.941354
0,0,0.94026
0,0,1.00651
0,0,0.946667
0,0,0.944375
2,2,0.929323
0,0,1.011198
0,0,0.950781
0,0,0.938907
0,0,1.00375
0,0,0.945677
2,2,0.947552
0,0,0.933229
2,2,0.98625
0,0,0.992812
0,0,0.936407
3,3,1.010625
0,0,0.946979
0,0,0.934844
0,0,1.004739
0,0,0.940729
1,1,0.950833
0,0,0.940625
0,0,0.977656
0,0,0.938385
0,0,0.941458
1,1,1.024271
0,0,0.941823
0,0,0.939635
0,0,0.960209
0,0,1.014323
0,0,0.938021
0,0,0.94823
0,0,0.990781
0,0,0.937604
0,0,0.951094
0,0,0.944635
0,3,0.981302
0,0,0.956146
0,0,0.781302
0,0,0.780938
0,0,0.840208
0,0,0.779896
0,0,0.856667
0,0,0.795989
0,0,0.842656
0,0,0.785626
0,0,0.793385
0,0,0.787864
0,0,0.858854
0,0,0.793438
2,2,0.787813
0,0,0.788021
0,0,0.860052
0,0,0.788073
0,0,0.785521
0,0,0.789687
0,0,0.825312
0,0,0.794219
0,0,0.782864
2,2,0.791979
2,2,0.819532
0,0,0.781719
0,0,0.79099
0,0,0.787865
0,0,0.852396
0,0,0.799844
3,3,0.796303
0,0,0.78599
0,0,0.792865
0,0,0.837135
0,0,0.7925
0,0,0.789791
0,0,0.855157
0,0,0.882604
0,0,0.786562
0,0,0.789479
0,0,0.786979
0,0,0.840834
2,4,0.787709
0,0,0.784531
0,0,0.792396
2,2,0.820938
2,2,0.790105
0,0,0.801302
1,1,0.786719
0,0,0.84573
0,0,0.786771
0,0,0.791302
0,0,0.781145
2,2,0.83224
0,0,0.787657
0,0,0.790521
0,0,0.782552
0,0,0.812969
0,0,0.784844
0,0,0.788334
0,0,0.781719
0,0,0.781406
0,0,0.864011
0,0,0.784271
0,0,0.784844
0,0,0.779948
0,0,0.90948
0,0,0.794583
0,0,0.788229
0,0,0.781094
0,0,0.828854
0,0,0.787084
0,0,0.781979
0,0,0.787343
0,0,0.852552
0,0,0.795834
0,0,0.793386
0,3,0.789011
2,2,0.846927
0,0,0.785625
0,0,0.784427
0,0,0.7975
0,0,0.819688
0,0,0.781094
0,0,0.783125
0,0,0.784948
0,0,0.849844
0,0,0.788021
0,0,0.79198
0,0,0.786146
0,0,0.784011
0,0,0.8475
0,0,0.790573
0,0,0.780781
0,0,0.783645
0,0,0.835261
0,0,0.838021
0,0,0.785364
2,2,0.781927
0,0,0.85849
0,0,0.790261
1,1,0.788438
0,0,0.792813
2,2,0.846979
0,0,0.792344
0,0,0.795104
2,2,0.783958
0,0,0.818386
2,2,0.797083
0,0,0.791771
0,0,0.782344
0,0,0.87
0,0,0.790469
0,0,0.780364
0,0,0.793229
0,0,0.836823
0,0,0.793125
0,0,0.784843
0,0,0.787969
1,1,0.784427
0,0,0.840573
0,0,0.78724
0,0,0.79625
0,0,0.789532
0,0,0.823073
0,0,0.786355
1,1,0.845625
0,0,0.790052
0,0,0.850365
2,2,0.790833
0,0,0.783698
0,0,0.784687
0,0,0.838073
2,2,0.788385
0,0,0.782343
0,0,0.779687
0,0,0.866771
0,0,0.786719
0,0,0.782188
0,0,0.782396
0,0,0.845573
0,0,0.784166
0,0,0.787083
0,0,0.79849
0,0,0.821146
0,0,0.783646
0,0,0.783959
0,0,0.790364
0,0,0.786407
0,0,0.824375
2,2,0.795104
0,0,0.78323
0,0,0.782604
0,0,0.869427
0,0,0.783646
0,0,0.784532
0,0,0.842813
0,0,0.835313
0,0,0.788802
0,0,0.790365
0,0,0.795677
0,0,0.880729
0,0,0.786198
0,0,0.788333
0,1,0.783177
0,0,0.85099
0,0,0.794323
0,0,0.79599
0,0,0.793438
0,0,0.829532
0,0,0.794792
0,0,0.789218
0,0,0.793281
0,0,0.85349
0,0,0.797136
0,0,0.784062
0,0,0.783906
0,0,0.838386
0,0,0.782917
0,0,0.799167
0,0,0.78125
0,2,0.787187
0,0,0.886666
0,0,0.801771
0,0,0.78901
0,0,0.839948
0,0,0.859948
0,0,0.789427
0,0,0.785364
0,0,0.793021
2,2,0.862135
0,0,0.788646
0,0,0.799167
0,0,0.78552
0,0,0.850989
0,0,0.791355
0,0,0.782135
0,0,0.794219
0,0,0.830313
0,0,0.801615
0,0,0.785885
0,0,0.78599
0,0,0.852552
0,0,0.78526
0,0,0.790677
0,0,0.791875
2,2,0.832031
0,0,0.786614
0,0,0.78724
0,0,0.784687
0,0,0.852136
0,0,0.798021
0,0,0.787813
0,0,0.790625
0,0,0.788594
0,0,0.912396
0,0,0.7925
0,0,0.789167
0,0,0.788907
0,0,0.820781
0,0,0.7925
0,0,0.787083
0,0,0.786875
0,0,0.852396
0,0,0.800625
0,0,0.784375
0,0,0.792916
0,0,0.841979
0,0,0.792553
0,0,0.790156
0,0,0.787969
0,0,0.828073
0,0,0.78526
0,0,0.784947
0,0,0.785521
0,0,0.898802
0,0,0.792917
0,0,0.787396
2,0,0.796615
0,0,0.827553
0,0,0.787865
0,0,0.783282
2,2,0.781771
0,0,0.869948
0,0,0.804896
0,0,0.843958
0,0,0.793803
0,0,0.788125
0,0,0.790938
2,2,0.79698
0,0,0.799375
0,0,0.788282
0,0,0.854063
0,0,0.795
0,0,0.779427
0,0,0.782969
0,0,0.837656
0,0,0.799271
0,0,0.774115
0,0,0.807396
0,0,0.860312
0,0,0.782396
0,0,0.784583
0,0,0.789844
0,0,0.861094
0,0,0.787865
0,0,0.783125
0,0,0.800053
0,0,0.852448
0,0,0.844896
0,0,0.8225
0,0,0.785833
0,0,0.827344
0,0,0.795052
0,0,0.784219
2,2,0.843542
1,0,0.869115
0,0,0.794219
0,0,0.805052
0,0,0.769375
0,0,0.816198
0,0,0.781302
0,0,0.786771
0,0,0.803386
0,0,0.849792
0,0,0.790833
0,0,0.786406
0,0,0.778178
0,0,0.839636
0,0,0.789896
0,0,0.784011
0,0,0.781354
0,0,0.795104
0,0,0.820782
0,0,0.783958
0,0,0.778438
0,0,0.789792
0,0,0.845781
0,0,0.782032
0,0,0.786146
0,0,0.787553
0,0,0.829844
0,0,0.791875
0,0,0.786407
0,0,0.781146
0,0,0.871302
0,0,0.795729
0,0,0.792396
0,0,0.782031
0,0,0.851719
0,0,0.786302
0,0,0.78625
0,0,0.784115
0,0,0.850521
0,0,0.787135
0,0,0.78849
0,0,0.783125
0,0,0.851979
0,0,0.791719
0,0,0.783437
0,0,0.785364
0,0,0.792604
2,2,0.843802
0,0,0.782448
0,0,0.779219
0,0,0.778907
0,0,0.825208
0,0,0.791094
0,0,0.787969
0,0,0.781354
0,0,0.812448
0,0,0.783646
0,0,0.780313
0,0,0.786458
0,0,0.911875
0,0,0.799583
0,0,0.780312
0,0,0.783125
0,0,0.856406
0,0,0.785989
0,0,0.784791
0,0,0.788958
0,0,0.810261
0,0,0.787969
0,0,0.788021
0,0,0.782344
0,0,0.785104
0,0,0.820677
0,0,0.791511
1,1,0.788542
0,0,0.794636
0,0,0.85224
2,2,0.788698
0,0,0.786719
0,0,0.790573
0,0,0.820105
0,0,0.782708
0,0,0.783854
0,0,0.781562
0,0,0.88
0,0,0.798958
0,0,0.794844
0,0,0.78573
0,0,0.841406
3,3,0.864479
0,0,0.788282
0,0,0.79
0,0,0.868646
0,0,0.791771
0,0,0.786406
0,0,0.784219
0,1,0.827084
0,0,0.792188
0,0,0.787448
0,0,0.796146
0,0,0.785573
0,0,0.847135
0,0,0.793646
0,0,0.786771
0,0,0.793802
2,2,0.844479
0,0,0.80401
0,0,0.794323
0,0,0.780937
0,0,0.874375
0,0,0.784011
2,2,0.785104
0,0,0.790625
0,0,0.847865
0,0,0.787343
0,0,0.783438
0,0,0.792552
0,0,0.823698
2,2,0.785573
0,0,0.854479
0,0,0.782605
2,2,0.83151
0,0,0.787917
0,0,0.785573
0,0,0.783021
0,0,0.854114
0,0,0.788646
0,0,0.783594
0,0,0.781614
0,0,0.816666
0,0,0.783645
0,0,0.783229
0,0,0.792969
2,2,0.787396
0,0,0.852552
0,0,0.787448
2,2,0.802552
2,2,0.781927
0,0,0.853333
0,0,0.788333
2,2,0.787604
0,0,0.783907
0,0,0.825104
0,0,0.785677
0,0,0.780833
0,0,0.789427
0,0,0.835417
0,0,0.788177
0,0,0.780833
0,0,0.841094
0,0,0.847396
0,0,0.79099
0,0,0.788386
0,0,0.792761
0,0,0.821094
2,2,0.782656
0,0,0.78625
0,0,0.782552
0,0,0.790834
0,0,0.854896
0,0,0.802292
3,2,0.785
0,0,0.787032
0,0,0.859219
0,0,0.79198
0,0,0.792396
2,0,0.787968
0,0,0.856406
0,0,0.784271
2,2,0.786667
2,2,0.787813
0,0,0.843594
0,0,0.786666
0,0,0.793125
2,2,0.790782
0,0,0.846927
0,0,0.794635
0,0,0.789531
0,0,0.785312
2,2,0.893594
0,0,0.784063
2,2,0.786667
0,0,0.78474
0,0,0.856406
0,0,0.790104
0,0,0.782605
2,2,0.786615
0,0,0.852031
2,2,0.791927
0,0,0.782552
0,0,0.802083
0,0,0.782604
0,0,0.815
0,0,0.786771
0,0,0.782187
2,2,0.784011
0,0,0.816667
1,1,0.791302
0,0,0.786718
0,0,0.780208
0,0,0.847552
0,0,0.796823
0,0,0.786406
0,0,0.800782
0,0,0.886042
0,0,0.826667
0,0,0.791406
0,0,0.785261
0,0,0.966667
0,0,0.795781
0,0,0.803177
0,0,0.792917
0,0,0.861406
0,0,0.796458
0,0,0.790052
0,0,0.797136
0,0,0.865885
2,2,0.790989
0,0,0.789115
0,0,0.805938
0,0,0.83573
0,0,0.79625
0,0,0.791771
2,2,0.800417
0,0,0.875416
1,1,0.787917
0,0,0.79125
0,0,0.791666
0,0,0.787187
2,2,0.863021
0,0,0.788229
0,0,0.788073
0,0,0.785469
0,0,0.89151
0,0,0.803385
0,0,0.786718
0,0,0.793698
0,0,0.859948
0,0,0.840052
0,0,0.78875
0,0,0.785365
0,0,0.834115
0,0,0.808177
2,2,0.783698
0,0,0.788229
0,0,0.83349
0,0,0.789739
0,0,0.805729
0,0,0.899688
0,0,1.168646
0,0,0.796302
0,0,0.785937
0,0,0.836614
0,0,0.913437
0,0,0.840833
0,0,0.8425
0,0,0.957656
0,0,0.836042
0,0,0.841875
0,0,0.832552
0,0,1.145417
0,0,0.971198
0,0,0.802605
0,0,0.810417
1,1,0.89599
0,0,0.809688
0,0,0.801875
0,0,0.79849
0,0,1.006823
0,0,0.798802
0,0,0.789427
0,0,0.781198
0,0,0.932656
2,2,0.88625
0,0,0.792552
0,0,0.7775
0,0,0.825209
0,0,0.768333
0,0,0.766042
0,0,0.765104
0,0,0.82901
0,0,0.770781
0,0,0.768177
0,0,0.774531
0,0,0.809375
0,0,0.772187
0,0,0.820521
0,0,0.811615
0,0,0.807031
0,0,0.764636
0,0,0.772084
0,0,0.765052
0,0,0.764843
0,0,0.784948
0,0,0.770364
0,0,0.767188
0,1,0.766718
0,0,0.848489
0,0,0.80974
0,0,0.766042
0,0,0.769584
0,0,0.818386
0,0,0.765729
0,0,0.766614
0,0,0.777396
0,0,0.814896
0,0,0.770417
0,0,0.773698
0,0,0.770157
0,0,0.765469
0,0,0.797396
2,2,0.772709
0,0,0.77448
0,0,0.770677
0,0,0.791771
0,0,0.772032
0,0,0.767656
0,0,0.772552
0,0,0.789427
0,0,0.773959
0,0,0.774115
2,2,0.769167
0,0,0.802656
0,0,0.768959
0,0,0.77125
0,0,0.770573
0,0,0.78099
2,2,0.792709
0,0,0.801979
0,0,0.770469
0,0,0.771198
2,2,0.823437
1,1,0.774531
0,0,0.773282
0,0,0.762916
0,0,0.818229
0,0,0.775313
2,2,0.772865
0,0,0.772396
1,1,0.81349
0,0,0.769167
0,0,0.779479
0,0,0.769115
0,0,0.770677
2,2,0.790365
0,0,0.773542
0,0,0.774271
2,2,0.77724
0,0,0.804219
0,0,0.770729
0,0,0.771771
0,0,0.769271
0,0,0.799636
0,0,0.772448
0,0,0.770885
0,0,0.768333
0,0,0.77
0,0,0.80776
0,0,0.821719
0,0,0.776146
0,0,0.781197
0,0,0.813333
0,0,0.771355
0,0,0.769219
0,0,0.767239
0,0,0.799479
0,0,0.772656
0,0,0.769792
0,0,0.769531
1,1,0.788802
0,0,0.773906
0,0,0.770677
0,0,0.779063
0,0,0.771928
0,0,0.804115
0,0,0.781927
0,0,0.771875
0,0,0.768854
0,0,0.794427
0,0,0.776459
0,0,0.766823
0,0,0.767553
0,0,0.812031
0,0,0.771876
0,0,0.77323
0,0,0.789063
0,0,0.813906
0,0,0.808907
0,0,0.770313
0,0,0.779792
0,0,0.769323
0,0,0.794843
0,0,0.785312
0,0,0.773438
0,0,0.769011
0,0,0.813906
0,0,0.768282
0,0,0.767865
0,0,0.771146
0,0,0.812865
0,0,0.769636
0,0,0.765
0,0,0.768802
0,0,0.791302
0,0,0.779167
0,0,0.774584
0,0,0.780885
0,0,0.775052
0,0,0.819427
0,0,0.770573
0,0,0.772969
0,0,0.771823
0,0,0.808177
0,0,0.774011
0,0,0.772344
0,0,0.770521
0,0,0.800416
0,0,0.810781
0,0,0.788542
0,0,0.775573
0,0,0.791406
0,0,0.772604
3,3,0.772032
1,1,0.769844
0,0,0.773594
0,0,0.808438
0,0,0.768698
2,2,0.779218
0,0,0.770625
0,0,0.794948
2,2,0.770781
2,2,0.771458
0,0,0.779063
0,0,0.851198
0,0,0.77401
0,0,0.770781
0,0,0.768906
0,0,0.810886
0,0,0.770104
0,0,0.773438
0,0,0.771146
0,0,0.77151
0,0,0.787188
0,0,0.770833
0,0,0.769323
0,0,0.77401
1,1,0.791823
0,0,0.822344
0,0,0.770625
0,0,0.777552
0,0,0.817239
0,0,0.773594
2,2,0.772604
0,0,0.771458
0,0,0.790261
0,0,0.772812
0,0,0.769063
0,0,0.769167
0,0,0.770781
1,1,0.82448
0,0,0.772813
2,2,0.774271
2,2,0.77073
0,0,0.802135
0,0,0.779948
0,0,0.771823
2,2,0.773646
0,0,0.806927
0,0,0.774792
0,0,0.768959
0,0,0.7725
0,0,0.785833
0,0,0.769844
0,0,0.772344
0,0,0.775573
0,0,0.768855
0,0,0.807708
0,0,0.804791
0,0,0.781928
2,2,0.772344
0,0,0.800209
0,0,0.78875
0,0,0.774896
0,0,0.778594
2,2,0.827448
0,0,0.772396
0,0,0.778125
0,0,0.773803
0,0,0.809063
1,1,0.775209
0,0,0.771615
0,0,0.76875
0,0,0.770521
0,0,0.794063
0,0,0.774635
0,0,0.781042
0,0,0.772552
0,0,0.79599
0,0,0.773594
0,0,0.771458
0,0,0.771876
0,0,0.794583
1,1,0.768854
2,2,0.760469
0,0,0.764791
0,0,0.794948
0,0,0.770781
0,0,0.8175
1,0,0.769948
2,2,0.775626
0,0,0.815573
2,2,0.767344
0,0,0.75974
0,0,0.768959
0,0,0.801146
0,0,0.776042
0,0,0.767291
0,0,0.76677
0,0,0.786042
0,0,0.772292
0,0,0.775781
0,0,0.767761
0,0,0.812656
0,0,0.775
0,0,0.766771
0,0,0.771823
0,0,0.766875
0,0,0.799531
0,0,0.767292
0,0,0.787917
0,0,0.776563
0,0,0.800052
0,0,0.774479
0,0,0.775834
0,1,0.774948
0,0,0.812865
0,0,0.822812
0,0,0.771927
0,0,0.77599
0,0,0.808333
0,0,0.770833
0,0,0.766614
0,0,0.774062
0,3,0.775157
3,2,0.804531
1,1,0.765052
2,2,0.769323
2,2,0.766146
0,0,0.792552
0,0,0.769844
0,0,0.78026
0,0,0.774791
0,0,0.800052
0,0,0.768178
0,0,0.778385
0,0,0.770521
0,0,0.777187
0,0,0.787135
0,0,0.768282
0,0,0.767761
0,0,0.771771
0,0,0.812552
0,0,0.773698
0,0,0.783177
0,0,0.768542
0,0,0.802292
0,0,0.806979
0,0,0.76901
0,0,0.770781
0,0,0.786875
0,0,0.771041
2,2,0.765364
0,0,0.766302
0,0,0.766198
0,0,0.790365
0,0,0.766876
0,0,0.766302
0,0,0.777135
0,0,0.810782
0,0,0.775677
0,0,0.765208
0,0,0.771355
0,0,0.789376
0,0,0.765469
2,2,0.769115
0,0,0.763802
0,0,0.764532
0,0,0.820052
2,2,0.766511
0,0,0.765677
0,0,0.769063
0,1,0.807292
2,2,0.76875
0,0,0.77375
0,0,0.773021
0,0,0.80177
0,0,0.810365
2,2,0.770417
0,0,0.767084
0,0,0.788333
0,0,0.769896
0,0,0.767657
0,0,0.768073
0,0,0.763281
0,0,0.797865
0,0,0.763959
0,0,0.775885
0,0,0.769948
0,0,0.799844
0,0,0.765834
0,0,0.767812
0,0,0.770364
0,0,0.805209
0,0,0.76724
0,0,0.765469
2,2,0.769219
2,2,0.80823
2,2,0.772865
0,0,0.775
0,0,0.763854
0,0,0.780937
0,0,0.82474
0,0,0.780677
0,0,0.77
0,0,0.773802
0,0,0.795885
0,0,0.808854
0,0,0.774844
0,0,0.777292
2,2,0.815833
0,0,0.77099
2,2,0.776354
0,0,0.769323
0,0,0.790834
0,0,0.768541
0,0,0.780625
0,0,0.768229
3,3,0.771927
0,0,0.819687
0,0,0.771511
0,0,0.769115
0,0,0.773021
0,0,0.799062
0,0,0.776823
0,0,0.76625
0,0,0.775052
0,0,0.782708
0,0,0.76573
0,0,0.771979
0,0,0.777135
0,0,0.795937
0,0,0.770364
0,0,0.780313
0,0,0.771928
2,2,0.775521
0,0,0.802969
0,0,0.813594
0,0,0.769844
0,0,0.759896
0,0,0.798594
0,0,0.770521
0,0,0.767344
0,0,0.765
0,0,0.812552
0,0,0.773594
0,0,0.775261
0,0,0.768594
0,0,0.768802
0,0,0.802135
0,0,0.775052
0,0,0.768855
0,0,0.767396
1,1,0.804844
0,0,0.770886
0,0,0.771146
0,0,0.766511
0,0,0.808334
2,2,0.777343
0,0,0.775937
0,0,0.775208
0,0,0.814375
0,0,0.772188
0,0,0.762605
0,0,0.766146
0,0,0.770364
0,0,0.786094
0,0,0.814323
0,1,0.770365
0,0,0.769479
0,0,0.815729
0,0,0.769167
0,0,0.771198
0,0,0.766146
0,0,0.808646
1,1,0.773958
0,0,0.768073
0,0,0.767969
0,0,0.789739
0,0,0.773542
0,0,0.773021
0,0,0.771458
0,0,0.766719
0,0,0.783021
0,0,0.766615
0,0,0.77
0,0,0.765312
0,0,0.796146
0,0,0.76802
0,0,0.763542
0,0,0.780729
0,0,0.782657
0,0,0.768177
0,0,0.764531
0,0,0.777032
0,0,0.765416
0,0,0.849531
0,0,0.766094
0,0,0.771719
1,1,0.764687
0,0,0.79198
0,0,0.773646
0,0,0.767604
0,0,0.764219
0,0,0.809583
0,0,0.77125
0,0,0.775677
0,0,0.767708
0,0,0.798698
0,0,0.765261
0,0,0.765573
0,0,0.770104
0,0,0.767344
0,0,0.805938
0,0,0.770417
0,0,0.777292
0,0,0.772761
2,2,0.79875
0,0,0.772761
0,0,0.777292
0,0,0.767604
0,1,0.804219
0,0,0.771146
0,0,0.766667
0,0,0.770521
2,2,0.793437
0,0,0.809583
0,0,0.770312
0,0,0.771928
0,0,0.769427
0,0,0.800364
0,0,0.770157
0,0,0.764792
0,0,0.775
0,3,0.853281
0,0,0.771927
0,0,0.767604
0,0,0.775261
0,0,0.803542
0,0,0.766979
0,0,0.769219
0,0,0.767136
0,0,0.790209
0,0,0.764375
0,0,0.768958
0,0,0.765573
0,0,0.770573
0,0,0.811302
0,0,0.777813
0,0,0.770104
0,0,0.772448
2,2,0.798959
0,0,0.766146
2,2,0.765104
0,2,0.77224
2,2,0.797448
0,0,0.808177
0,0,0.770937
0,0,0.767292
0,0,0.768854
0,0,0.816511
0,0,0.76875
0,0,0.768073
0,0,0.777187
0,0,0.809115
2,2,0.767032
0,0,0.771094
0,0,0.76901
0,0,0.784739
0,0,0.769948
0,0,0.771667
0,0,0.768907
0,0,0.812135
0,0,0.769584
2,2,0.780885
0,0,0.772969
0,0,0.776667
0,3,0.806146
0,0,0.770469
0,0,0.768593
0,0,0.76625
0,0,0.802188
0,0,0.773073
0,0,0.771459
0,0,0.771302
0,0,0.785573
0,0,0.815834
0,0,0.76974
0,0,0.780261
0,0,0.81073
0,0,0.781042
0,0,0.768802
0,0,0.771458
2,2,0.773854
0,0,0.792083
0,0,0.770625
1,1,0.77276
0,0,0.775156
0,0,0.805677
0,0,0.771198
0,0,0.768386
0,0,0.768125
0,0,0.810729
0,0,0.787187
0,0,0.779427
0,0,0.765625
0,0,0.792083
0,0,0.767865
0,0,0.768855
0,0,0.770052
0,0,0.773177
1,1,0.79125
2,2,0.767032
0,0,0.767708
2,2,0.766822
0,0,0.808177
2,2,0.813229
0,0,0.780313
0,0,0.771458
0,0,0.787187
2,2,0.767396
0,0,0.766146
1,1,0.769427
0,0,0.767031
0,0,0.837656
2,2,0.77151
0,0,0.768542
0,0,0.770573
0,0,0.801875
0,0,0.771198
0,0,0.771458
0,0,0.76599
0,0,0.805521
0,0,0.764375
0,0,0.768229
0,0,0.774687
0,0,0.784323
0,0,0.773542
0,0,0.77276
2,2,0.771823
0,0,0.76901
0,0,0.808958
0,0,0.773125
0,0,0.766667
0,0,0.7675
0,0,0.837656
0,0,0.7725
0,0,0.766927
0,0,0.773073
0,0,0.810416
0,0,0.772865
0,0,0.779948
0,0,0.773542
0,0,0.808229
0,0,0.771094
0,0,0.771042
0,0,0.765104
0,0,0.765886
0,0,0.797916
0,0,0.767813
0,0,0.767396
1,0,0.77224
0,0,0.789115
0,0,0.777552
0,0,0.765677
0,0,0.769635
0,0,0.804739
0,0,0.766771
0,0,0.770937
0,0,0.770364
0,0,0.76776
0,0,0.78
0,0,0.771719
0,0,0.766146
0,0,0.769271
0,0,0.85276
2,2,0.765833
0,0,0.771094
2,2,0.779636
0,0,0.819218
0,0,0.773855
0,0,0.775157
2,2,0.770833
0,1,0.786979
0,0,0.7675
0,0,0.770052
0,0,0.76849
0,0,0.771823
0,0,0.795365
0,0,0.769219
0,0,0.766406
0,0,0.767031
0,0,0.811823
0,0,0.767917
0,0,0.774323
0,0,0.766563
0,0,0.787553
0,0,0.77
0,0,0.765834
0,0,0.77625
0,0,0.812187
0,0,0.780729
2,2,0.78573
0,0,0.773385
0,0,0.767864
0,0,0.852031
0,0,0.779479
0,0,0.770104
0,0,0.765886
0,0,0.797188
0,0,0.766563
0,0,0.767604
0,0,0.764323
0,0,0.796355
0,0,0.767656
0,0,0.767656
0,0,0.767187
0,0,0.79875
2,2,0.774532
0,0,0.7725
0,0,0.778542
0,0,0.77823
0,0,0.819011
2,2,0.76849
0,0,0.768854
0,0,0.767813
0,0,0.813125
0,0,0.768333
0,0,0.76677
1,1,0.767604
2,2,0.806146
0,0,0.773906
0,0,0.759844
0,0,0.774948
0,0,0.768229
0,0,0.834323
0,0,0.767865
0,0,0.764896
0,0,0.763178
0,0,0.783489
0,0,0.772136
2,2,0.762656
0,0,0.766458
0,0,0.799739
1,1,0.765313
0,0,0.765729
0,0,0.771718
0,0,0.786666
2,0,0.764479
0,0,0.766614
0,0,0.786666
0,0,0.770365
0,0,0.833021
0,0,0.767188
0,0,0.769271
0,0,0.763646
0,0,0.791979
0,0,0.764687
0,0,0.765625
2,2,0.766666
0,0,0.800937
0,0,0.765208
0,0,0.763594
0,0,0.766302
0,0,0.773438
0,0,0.851614
0,0,0.77599
0,0,0.771407
0,0,0.821771
3,3,0.766198
0,0,0.768802
0,0,0.770416
0,0,0.774219
0,0,0.796354
0,0,0.773021
0,0,0.886667
0,0,0.76849
0,0,0.820105
0,0,0.76849
0,0,0.773385
0,0,0.771614
0,0,0.801667
0,0,0.77
0,0,0.774792
0,0,0.780052
0,0,0.792501
0,0,0.770208
0,0,0.771614
1,1,0.765
2,2,0.772083
1,3,0.787865
0,0,0.768073
0,0,0.771979
0,0,0.767448
0,0,0.841875
3,0,0.767916
0,0,0.766876
0,0,0.764323
1,1,0.802657
2,2,0.786927
2,2,0.769011
0,0,0.770625
0,0,0.810678
0,0,0.769114
0,0,0.768646
1,0,0.77401
0,0,0.768021
0,0,0.808802
0,0,0.776198
0,0,0.769011
0,0,0.763854
0,0,0.79073
0,0,0.766146
0,0,0.774636
0,0,0.764948
2,2,0.794844
0,0,0.76401
0,0,0.76625
0,0,0.770573
0,0,0.764011
0,0,0.789323
0,0,0.770104
0,0,0.766667
1,1,0.765104
0,0,0.831771
0,0,0.765469
0,0,0.767083
0,0,0.764791
0,0,0.818178
0,0,0.765469
0,0,0.765156
0,0,0.769323
0,0,0.796146
0,0,0.764791
0,0,0.767396
0,0,0.775782
0,0,0.769635
0,0,0.803073
0,0,0.76849
0,0,0.768646
0,0,0.769531
0,0,0.793073
0,0,0.785208
0,0,0.76599
2,2,0.770833
0,0,0.798959
0,0,0.766667
2,2,0.776302
0,0,0.781355
2,2,0.801354
0,0,0.775989
0,0,0.767864
0,0,0.765989
0,0,0.770781
0,0,0.852708
0,0,0.769375
0,0,0.784896
0,0,0.775781
0,0,0.812448
0,0,0.768177
2,2,0.76099
0,0,0.769323
0,0,0.790156
0,0,0.768751
2,2,0.766042
0,0,0.76448
0,0,0.765781
1,0,0.780312
0,0,0.774843
0,0,0.776094
0,0,0.773386
0,0,0.809063
2,2,0.769896
0,0,0.778073
0,0,0.766146
0,0,0.794011
0,0,0.77849
0,0,0.78349
0,0,0.77474
0,0,0.816042
0,0,0.77
0,0,0.762187
0,0,0.773073
0,0,0.776458
0,0,0.831771
0,0,0.777136
0,0,0.771719
0,0,0.769271
0,0,0.804323
0,0,0.772917
0,0,0.782083
0,0,0.766354
0,0,0.801354
0,0,0.770417
0,0,0.766406
2,2,0.764844
0,0,0.819688
0,0,0.780729
0,0,0.773021
0,0,0.772292
0,0,0.769428
0,0,0.802865
0,0,0.768854
0,0,0.775313
0,0,0.765886
2,2,0.815156
0,0,0.776094
0,0,0.7675
0,0,0.767084
0,0,0.803282
0,0,0.770782
0,0,0.7675
0,0,0.765364
0,0,0.785156
0,0,0.802761
0,0,0.771614
0,0,0.767605
0,0,0.770937
0,0,0.785469
0,0,0.769167
0,0,0.768385
0,0,0.777396
0,0,0.804636
0,0,0.766667
0,0,0.771354
0,0,0.7675
0,0,0.784636
0,0,0.767396
2,2,0.76875
0,0,0.768594
0,0,0.767396
0,0,0.805573
0,0,0.767708
0,0,0.769791
0,0,0.764791
0,0,0.809375
0,0,0.766198
2,2,0.77099
0,0,0.767864
0,0,0.786198
0,0,0.775625
0,0,0.777396
0,0,0.772031
0,0,0.800365
0,0,0.814896
0,0,0.776771
0,0,0.769375
0,0,0.769739
0,0,0.817084
0,0,0.768854
0,0,0.778333
0,0,0.775573
0,0,0.795521
0,0,0.771093
0,0,0.771718
0,0,0.772396
0,0,0.867813
0,0,0.773073
0,0,0.777344
0,0,0.768177
1,0,0.79573
0,0,0.773333
0,0,0.769844
0,0,0.765938
0,0,0.767448
0,0,0.796354
2,2,0.776823
0,0,0.771355
0,0,0.766406
0,0,0.789896
0,0,0.766042
0,0,0.763854
0,0,0.768438
0,0,0.840469
0,0,0.770729
0,0,0.769427
0,0,0.764427
0,0,0.784427
0,0,0.768386
0,0,0.770156
0,0,0.780417
0,0,0.766667
0,0,0.808333
0,0,0.767396
0,0,0.765417
0,3,0.768698
0,0,0.799375
0,0,0.772136
0,0,0.773177
0,0,0.770573
0,0,0.790678
0,0,0.769115
0,0,0.772813
0,0,0.779636
0,0,0.777083
0,0,0.797031
0,0,0.766927
0,0,0.765833
0,0,0.7675
0,1,0.812969
0,0,0.769063
0,0,0.767657
0,0,0.766719
0,0,0.824739
0,0,0.765677
0,0,0.766614
0,0,0.776771
0,0,0.817917
0,0,0.768125
2,2,0.770521
0,0,0.767656
2,2,0.76224
0,0,0.801094
2,2,0.773438
0,0,0.769115
0,0,0.762031
0,0,0.799688
0,0,0.766771
0,0,0.76474
0,0,0.773906
0,0,0.779688
0,0,0.766875
2,2,0.760677
0,0,0.760677
0,0,0.773802
0,0,0.789791
0,0,0.774583
0,0,0.768542
2,2,0.766355
2,2,0.80125
0,0,0.761875
0,0,0.760417
0,0,0.760365
0,0,0.851719
0,0,0.770938
0,0,0.762969
0,0,0.767136
1,1,0.788021
2,2,0.775365
0,0,0.769427
2,2,0.773125
2,2,0.760469
0,0,0.831771
0,0,0.777865
0,0,0.7725
0,0,0.75948
0,0,0.79323
0,0,0.778385
0,0,0.768646
0,0,0.773542
2,2,0.808125
0,0,0.768646
0,0,0.770729
0,0,0.777969
0,0,0.790157
0,0,0.770417
0,0,0.767708
0,0,0.767136
0,0,0.768229
0,0,0.816303
0,0,0.776667
0,0,0.769635
0,0,0.77
0,0,0.845417
0,0,0.77125
0,0,0.771302
0,0,0.765313
0,0,0.795885
0,0,0.765104
0,0,0.767136
0,0,0.768021
0,0,0.768385
2,2,0.79823
0,0,0.769531
0,0,0.771511
0,0,0.765938
0,0,0.793489
0,0,0.768594
1,1,0.772188
0,0,0.769427
0,0,0.797709
0,0,0.774636
0,0,0.76776
0,0,0.771093
0,0,0.802812
0,0,0.772604
0,0,0.771042
0,0,0.771042
0,0,0.769532
0,0,0.800626
0,0,0.768959
0,0,0.778281
0,0,0.776563
0,0,0.843126
