label,pred,exec_time_ms
0,0,0.904896
0,0,0.903958
1,0,0.761198
0,0,0.768802
2,2,0.763646
2,2,0.885834
0,0,0.801354
0,0,0.776928
0,0,0.785417
0,0,12.991877
0,0,1.765313
0,0,0.895104
0,0,0.800677
0,0,0.779218
0,0,0.799271
3,3,0.773073
0,0,0.770261
0,0,0.800105
2,2,1.889271
1,1,1.331406
0,0,1.532136
0,0,1.207292
0,0,1.284739
2,2,1.147917
0,0,1.283073
0,2,1.228438
0,0,1.193646
0,0,1.193229
0,0,1.241719
0,0,1.177136
0,0,1.138229
0,0,1.257083
0,0,1.133281
0,0,1.37349
0,0,1.358594
0,0,0.824584
0,0,0.89599
0,0,0.839427
0,0,0.785261
0,0,0.767657
0,0,0.779167
0,0,0.770312
2,2,0.770313
0,0,0.773594
0,0,0.769792
0,0,0.812552
0,0,0.760729
0,0,0.785365
0,0,0.856407
0,0,0.881302
0,0,0.823229
0,0,0.808646
0,0,0.781771
0,0,0.833542
0,0,0.79224
0,0,0.858959
0,0,0.837761
0,0,0.99552
0,0,1.29776
0,0,1.0325
0,3,0.875313
0,0,0.842292
2,2,0.826094
0,0,0.834948
0,0,0.903855
0,0,0.816823
0,0,0.836041
0,0,0.835157
1,0,0.930834
0,0,0.826667
0,0,0.828437
0,0,0.806042
0,0,0.879166
0,0,0.78276
0,0,0.804323
0,0,0.787656
0,0,0.972552
1,0,0.792031
0,0,0.771563
0,0,0.767292
0,0,0.862552
0,0,0.878958
1,1,0.762344
0,0,0.761771
0,0,0.818542
0,0,0.819375
0,0,0.828594
0,0,0.792813
0,0,0.86125
0,0,0.828854
0,0,0.780573
0,0,0.809792
0,0,0.898958
0,0,0.808854
0,0,0.83625
0,0,0.825312
1,2,0.849479
0,0,0.775833
0,0,0.764271
0,0,0.757083
2,2,0.777188
0,0,0.749688
0,0,0.760261
0,0,0.765833
0,0,0.769948
0,0,0.810573
0,0,0.755
2,2,0.755208
0,0,0.764636
0,0,0.830573
0,0,0.817083
0,0,0.843698
0,0,0.995938
0,0,1.027916
0,0,0.768281
0,0,0.75698
0,0,0.760469
0,0,0.794166
0,0,0.758854
0,0,0.813334
0,0,0.749011
0,0,0.792605
0,0,0.754844
0,0,0.756406
0,0,0.761354
0,0,0.829844
0,0,0.797187
0,0,0.785625
0,0,0.839375
0,0,0.932813
0,0,0.885104
0,0,0.793177
0,0,0.783125
0,0,0.829635
0,0,0.792135
0,0,0.770677
0,0,0.826771
0,0,0.885468
0,0,0.848646
0,0,0.86474
0,0,0.878542
0,0,0.940261
0,0,0.933646
0,0,0.965104
0,0,0.801094
0,0,0.849323
0,0,0.761302
1,1,0.769532
0,0,0.784948
0,0,0.899271
0,0,0.858489
0,0,0.828021
0,0,0.878906
0,0,0.988802
0,0,0.843802
0,0,0.8425
0,0,0.956406
0,0,0.816979
0,0,0.823021
0,0,0.768021
0,0,0.755834
0,0,0.811094
0,0,0.773594
0,0,0.765885
0,0,0.799896
0,0,0.862136
0,0,0.829219
0,0,0.828751
0,0,0.823438
0,0,0.901354
0,0,0.834062
0,0,0.822761
0,0,0.824479
0,0,0.909791
2,2,0.818385
0,0,0.865312
0,0,0.832188
0,0,1.400938
0,0,1.202188
0,0,0.88724
0,0,0.842188
0,0,0.861927
2,2,0.990105
0,0,1.165157
0,0,1.035729
0,0,0.934896
0,0,0.95474
0,0,0.888802
0,0,0.833229
0,0,0.79776
0,0,0.883438
1,1,1.000782
0,0,0.767969
0,0,0.756823
0,0,0.822136
0,0,0.762032
0,0,0.74875
0,0,0.751928
0,0,0.81474
2,2,0.821458
0,0,0.770156
0,0,0.784062
0,0,0.867032
0,0,0.764219
0,0,0.999428
0,0,0.785573
0,0,0.97948
0,0,0.78151
2,2,0.822864
0,0,0.778021
1,1,0.786562
0,0,0.822084
0,0,1.065104
0,0,0.884323
0,0,0.905834
0,0,0.856719
2,2,0.808959
0,0,0.82448
0,0,0.858646
0,0,0.797917
0,0,0.767604
0,0,0.74724
2,2,0.812552
2,2,0.75401
0,0,0.742292
1,0,0.745833
0,0,0.78276
0,0,0.755469
0,0,0.782813
0,0,0.760886
0,0,0.816198
0,0,0.891146
0,0,0.765052
0,0,0.785677
3,3,1.153855
0,0,0.781407
0,0,0.804688
0,0,0.768906
1,1,0.841094
0,0,0.852344
0,0,0.823437
0,0,0.807865
0,0,0.763073
0,0,0.868229
1,1,0.750052
0,0,0.751771
0,0,0.751303
2,2,0.880104
2,2,0.849167
0,0,0.752032
0,0,0.746771
0,0,0.793073
0,0,0.758645
2,2,0.752656
0,0,0.762969
0,0,0.820209
0,0,0.748959
0,0,0.744427
0,0,0.749479
0,0,0.749948
0,0,0.781667
2,2,0.745052
0,0,0.745313
0,0,0.75224
1,1,0.79974
0,0,0.75474
0,0,0.745729
0,0,0.747865
3,3,0.819531
2,2,0.761042
2,2,0.754844
0,0,0.750208
0,0,0.753126
0,0,0.799896
0,0,0.750625
2,2,0.752813
0,0,0.758021
0,0,0.784583
0,0,0.755156
0,0,0.760469
0,0,0.750261
0,0,0.755208
0,0,0.768282
0,0,0.755209
0,0,0.761354
2,2,0.751094
2,2,0.777865
0,0,0.753855
0,0,0.752917
0,0,0.751666
1,1,0.776198
0,0,0.745313
0,0,0.754896
0,0,0.74901
0,0,0.753073
0,0,0.777761
0,0,0.759323
0,0,0.752187
0,0,0.805885
0,0,0.829063
0,0,0.767448
0,0,0.754583
3,3,0.753854
2,2,0.798178
0,0,0.749219
2,2,0.75401
0,0,0.754114
0,0,0.751198
0,0,0.793906
0,0,0.756666
0,0,0.757969
0,0,0.757813
0,0,0.790052
0,0,0.773438
0,0,0.759948
0,0,0.757708
0,0,0.793229
0,0,0.761875
2,2,0.762084
0,0,0.759011
0,0,0.761719
0,0,0.807448
0,0,0.757865
0,0,0.757031
0,0,0.767031
0,0,0.84875
0,0,0.773958
0,0,0.847448
0,0,0.770208
0,0,0.820886
0,0,0.762708
0,0,0.764114
0,0,0.758178
0,0,0.797812
0,0,0.761511
0,0,0.754584
0,0,0.75526
0,0,0.760521
0,0,0.786406
0,0,0.76375
0,0,0.761823
0,0,0.775468
0,0,0.795312
0,0,0.755417
2,2,0.761458
0,0,0.76198
0,0,0.793385
0,0,0.765365
0,0,0.755781
0,0,0.757344
0,0,0.764114
0,0,0.802448
0,0,0.760677
0,0,0.754219
0,0,0.764115
0,0,0.795052
0,0,0.771354
0,0,0.805937
1,0,0.766771
2,2,0.784219
0,0,0.758802
0,0,0.761667
0,0,0.761615
0,0,0.765521
0,0,0.782083
0,0,0.759583
0,0,0.763125
0,0,0.759271
1,1,0.802448
2,2,0.765938
0,0,0.775469
0,0,0.770208
0,0,0.805469
0,0,0.75724
2,2,0.760209
0,0,0.764583
1,1,0.827396
0,0,0.769531
0,0,0.752083
0,0,0.75599
1,1,0.760781
0,0,0.805678
0,0,0.754115
2,2,0.761979
0,0,0.756615
0,0,0.796146
0,0,0.755625
0,0,0.800469
0,0,0.760521
0,0,0.791094
0,0,0.778959
0,0,0.76474
0,0,0.752552
0,0,0.758385
0,0,0.800781
2,2,0.767136
2,2,0.766511
0,0,0.751355
0,0,0.792812
0,0,0.759166
2,2,0.754583
0,0,0.753907
0,0,0.82151
0,0,0.751927
2,2,0.763907
0,0,0.753594
0,0,0.751823
1,1,0.813229
0,0,0.761823
0,0,0.77401
0,0,0.760157
0,1,0.77849
0,0,0.766198
2,2,0.76099
0,0,0.750521
2,2,0.778646
0,0,0.762917
0,0,0.822448
0,0,0.76349
0,0,0.77375
0,0,0.823333
0,0,0.76125
0,0,0.768438
0,0,0.752448
0,0,0.802344
1,1,0.748438
0,0,0.757969
0,0,0.752916
0,0,0.815156
0,0,0.769323
0,0,0.759895
0,0,0.766979
0,0,0.760834
0,0,0.80948
0,0,0.751146
0,0,0.776355
0,0,0.754479
0,0,0.803177
0,0,0.764479
2,2,0.756406
0,0,0.76526
0,0,0.822708
0,0,0.76026
0,0,0.762969
0,0,0.7475
2,2,0.797188
0,0,0.762084
0,0,0.81474
0,0,0.782761
0,0,0.751979
0,0,0.812969
0,0,0.76026
0,0,0.766198
1,1,0.756093
0,0,0.819896
0,0,0.763645
0,0,0.761718
0,0,0.772448
2,2,0.802917
0,0,0.756719
0,0,0.757865
0,0,0.758385
0,0,0.757552
0,0,0.84526
0,0,0.757032
0,0,0.754948
0,0,0.757135
0,0,0.776251
0,0,0.764896
0,0,0.758437
0,0,0.758177
0,0,0.835
0,0,0.756094
0,0,0.754167
0,0,0.759479
0,0,0.765209
0,0,0.762344
0,0,0.813802
0,0,0.754739
0,0,0.756458
0,0,0.820938
0,0,0.761459
0,0,0.758177
0,0,0.764427
0,0,0.798333
2,2,0.758386
0,0,0.773385
0,0,0.769687
0,0,0.790053
0,0,0.763646
0,0,0.76224
0,0,0.766042
0,0,0.76099
0,0,0.77625
0,0,0.769844
0,0,0.751875
0,0,0.753906
0,0,0.80099
0,0,0.769062
0,0,0.761927
0,0,0.784844
2,2,0.803229
0,0,0.760364
0,0,0.767396
0,0,0.767396
0,0,0.760468
0,0,0.873126
0,0,0.769792
0,0,0.761354
0,0,0.760468
0,0,0.797032
0,0,0.768229
0,0,0.762395
0,0,0.763959
0,0,0.791302
0,0,0.775469
0,0,0.759115
0,0,0.765989
2,2,0.808333
0,0,0.763229
0,0,0.763906
0,0,0.750834
0,0,0.763646
0,2,0.797812
0,0,0.761927
0,0,0.758958
0,0,0.760782
0,0,0.782292
0,0,0.756198
0,0,0.76651
0,0,0.755989
0,0,0.806198
0,0,0.756302
0,1,0.761615
2,0,0.754271
0,0,0.755313
0,0,0.884166
0,0,0.763386
0,0,0.760469
0,0,0.759896
2,2,0.784792
0,0,0.762917
0,0,0.756302
2,2,0.756718
0,0,0.794532
0,0,0.761406
0,0,0.765416
0,0,0.76276
0,0,0.760261
0,0,0.812605
0,0,0.764167
1,1,0.76125
0,0,0.768958
0,0,0.791355
0,0,0.76
0,0,0.7625
0,0,0.757865
0,0,0.822865
0,0,0.763698
0,0,0.768021
0,0,0.75625
0,0,0.759375
0,0,0.800469
0,0,0.761718
0,0,0.763438
0,0,0.766197
0,0,0.833229
0,0,0.769271
0,0,0.769323
0,0,0.760468
0,0,0.799427
0,0,0.758855
0,0,0.766615
0,0,0.760885
0,0,0.793855
0,0,0.759896
0,0,0.753802
0,0,0.769635
0,0,0.762031
0,0,0.804063
2,2,0.759636
0,0,0.763073
0,0,0.748854
0,0,0.810209
2,2,0.762448
0,0,0.760469
2,2,0.771823
0,0,0.795521
2,2,0.759948
0,0,0.758646
0,0,0.74849
0,0,0.762448
0,0,0.804687
0,0,0.75401
0,0,0.757969
2,2,0.757396
0,0,0.825834
0,0,0.766303
0,0,0.766198
0,0,0.756823
0,0,0.825625
0,0,0.759375
0,0,0.759167
0,0,0.755573
2,2,0.760573
0,0,0.788854
0,0,0.775261
0,0,0.754323
0,0,0.764687
0,0,0.808907
0,0,0.763802
0,0,0.765261
0,0,0.760156
0,0,0.800521
0,0,0.765885
0,0,0.758438
0,0,0.772084
0,0,0.773073
0,0,0.834479
0,0,0.762135
0,0,0.782135
0,0,0.762031
0,0,0.795313
0,0,0.756823
0,0,0.765937
0,0,0.757917
0,0,0.890052
0,0,0.775104
0,0,0.764532
0,0,0.764948
1,0,0.79875
1,0,0.761823
0,0,0.761511
0,0,0.762239
0,0,0.76427
0,0,0.851823
0,0,0.765573
0,0,0.764375
0,0,0.762604
0,0,0.799271
0,0,0.75802
0,0,0.765416
0,0,0.761823
0,0,0.786719
0,0,0.773542
0,0,0.758698
0,0,0.760313
0,0,0.778073
0,0,0.768281
0,0,0.760365
0,0,0.763906
0,0,0.760677
0,0,0.794063
0,0,0.764063
0,0,0.760104
0,0,0.796146
0,0,0.805521
0,0,0.760105
0,0,0.760313
0,0,0.770469
0,0,0.80625
0,0,0.770469
0,0,0.763438
0,0,0.769739
0,0,0.765521
0,0,0.804219
0,0,0.776302
0,0,0.777604
0,0,0.768073
0,0,0.819635
0,0,0.780157
0,0,0.76974
0,0,0.764271
0,0,0.79724
1,0,0.764219
0,0,0.768594
0,0,0.76526
0,0,0.806823
0,0,0.764219
0,0,0.760989
0,0,0.759167
0,0,0.759375
0,0,0.806927
0,0,0.761094
0,0,0.759635
0,0,0.818646
0,0,0.821562
0,0,0.767291
0,0,0.773385
0,0,0.773125
0,0,0.814115
0,0,0.761719
0,0,0.76401
0,0,0.767084
0,0,0.759792
0,0,0.803958
0,0,0.761771
0,0,0.760833
2,2,0.761771
0,0,0.798854
2,2,0.764636
0,0,0.763698
0,0,0.779167
0,0,0.798229
0,0,0.768906
0,0,0.768698
2,2,0.766511
0,0,0.812656
0,0,0.765261
0,0,0.77349
0,0,0.770469
0,0,0.77151
0,0,0.821614
0,0,0.756303
0,0,0.78026
0,0,0.814844
0,0,0.833542
0,0,0.773698
0,0,0.763177
0,0,0.762865
0,0,0.789688
0,0,0.764896
3,2,0.762396
0,0,0.768229
0,0,0.783698
2,2,0.756407
0,0,0.765261
0,0,0.757187
0,0,0.759636
0,0,0.811667
0,0,0.765208
0,0,0.775208
0,0,0.75901
1,0,0.865365
0,0,0.76625
0,0,0.767813
0,0,0.769896
0,0,0.823437
0,0,0.765938
0,0,0.772084
0,0,0.760469
0,0,0.768386
0,0,0.810208
0,0,0.766928
0,0,0.757812
0,0,0.836198
2,2,0.779531
3,3,0.764219
0,0,0.769114
0,0,0.761615
0,0,0.793125
0,0,0.77099
0,0,0.757865
0,0,0.755782
0,0,0.805833
0,0,0.760157
0,0,0.757344
0,0,0.763698
0,0,0.757552
0,0,0.813958
0,0,0.75474
0,0,0.761355
0,1,0.753854
1,1,0.881927
0,0,0.789063
2,2,0.774635
0,0,0.804428
0,0,0.849636
2,2,0.771562
0,0,0.754896
0,0,0.773489
0,0,0.809688
0,0,0.796666
0,0,0.765989
0,0,0.755886
0,0,0.824896
0,0,0.825625
0,0,0.785833
0,0,0.770156
0,0,0.776718
0,0,0.795677
0,0,0.756146
0,0,0.755834
0,0,0.757605
2,2,0.795365
0,0,0.756719
0,0,0.755833
0,0,0.766718
0,0,0.804114
0,0,0.765052
0,0,0.763958
0,0,0.753437
0,0,0.793125
0,0,0.816667
0,0,0.77276
0,0,0.763802
0,0,0.759739
0,0,0.789427
0,0,0.769167
0,0,0.760885
0,0,0.757864
0,0,0.79026
0,0,0.808802
0,0,0.785365
0,0,0.783594
0,0,0.804375
0,0,0.8125
0,0,0.779479
0,0,0.773073
0,0,0.7575
0,0,0.786146
0,0,0.774532
0,0,0.762187
0,0,0.7625
0,0,0.840469
0,0,0.758594
0,0,0.755261
2,2,0.762761
2,2,0.810208
2,2,0.765938
0,0,0.754219
0,0,0.756979
0,0,0.763593
0,0,0.801666
0,0,0.758958
0,0,0.757604
0,0,0.757604
0,0,0.801719
2,2,0.755
2,2,0.753229
0,0,0.754375
0,0,0.793281
0,0,0.778958
0,0,0.756719
0,0,0.812761
0,0,0.758594
0,0,0.825989
0,0,0.762917
0,0,0.767188
0,0,0.763646
0,0,0.816875
0,0,0.762917
0,0,0.760834
2,2,0.754948
0,0,0.798542
0,0,0.761719
0,0,0.780521
0,0,0.763333
0,0,0.801198
0,0,0.761615
0,0,0.759479
0,0,0.760834
2,2,0.77349
0,0,0.786406
0,0,0.769635
0,0,0.763958
0,0,0.773542
0,0,0.798385
0,0,0.76276
0,0,0.775
0,0,0.75927
0,0,0.813021
0,0,0.772604
0,0,0.760573
0,0,0.825938
0,0,0.769218
0,0,0.831302
0,0,0.75849
0,0,0.761198
0,0,0.760521
0,0,0.803802
0,0,0.755416
0,0,0.766511
0,0,0.760052
0,0,0.782136
0,0,0.768281
0,0,0.757188
1,1,0.761875
0,0,0.764375
0,0,0.778021
3,2,0.766615
0,0,0.757344
2,2,0.767292
2,1,0.788438
0,0,0.761511
0,0,0.758073
0,0,0.756302
0,0,0.793229
0,0,0.755885
0,0,0.759271
0,0,0.774688
0,0,0.764219
0,0,0.811615
0,0,0.757968
0,0,0.818333
0,0,0.760781
0,0,0.792761
0,0,0.758646
2,2,0.761094
0,0,0.755885
0,0,0.7875
0,0,0.763385
0,0,0.757448
0,0,0.756406
0,0,0.789948
0,0,0.757813
0,0,0.754688
0,0,0.759427
0,0,0.754271
2,2,0.781719
0,0,0.768855
0,0,0.777136
0,0,0.765
0,0,0.834635
0,0,0.762656
0,0,0.755208
2,2,0.75875
0,0,0.835521
0,0,0.76375
0,0,0.768177
2,2,0.758073
0,0,0.760261
0,0,0.819792
0,0,0.763177
1,0,0.84573
2,2,0.759687
0,0,0.792344
0,0,0.760885
0,0,0.75901
0,0,0.754271
0,0,0.783646
0,0,0.75875
0,0,0.760208
0,0,0.76698
0,0,0.798854
2,2,0.765312
0,0,0.758177
0,0,0.757031
0,0,0.765313
0,0,0.776198
0,0,0.757032
0,0,0.764323
0,0,0.759375
0,0,0.805626
0,0,0.75875
0,0,0.757187
0,0,0.755886
0,0,0.803906
0,0,0.76552
0,0,0.767396
0,0,0.762969
0,0,0.747656
0,0,0.798698
0,0,0.764479
2,2,0.795312
0,0,0.763073
0,0,0.791771
0,0,0.747605
0,0,0.753438
0,0,0.766146
0,0,0.810573
0,0,0.758073
0,0,0.758594
0,0,0.759218
0,0,0.752708
2,2,0.799063
0,0,0.760313
0,0,0.770104
0,0,0.756198
2,2,0.845782
0,0,0.759375
0,0,0.809636
0,0,0.759062
0,0,0.800416
0,0,0.766927
0,0,0.769844
0,0,0.775938
0,0,0.782344
0,0,0.814792
0,0,0.769428
0,0,0.764531
0,0,0.768125
1,1,0.810156
0,0,0.821459
2,2,0.764479
0,0,0.776718
0,0,0.800573
0,0,0.758177
0,0,0.763959
0,0,0.777396
0,0,0.778437
0,0,0.751407
0,0,0.760573
0,0,0.756823
0,0,0.753126
0,0,0.831093
0,0,0.78125
2,2,0.762657
2,2,0.761719
0,0,0.810625
3,3,0.765469
0,0,0.794166
0,0,0.771146
0,0,0.929427
0,0,0.799948
0,0,0.802292
1,0,0.917188
0,0,0.794219
2,2,0.791355
0,0,0.784687
0,0,0.773698
0,0,0.84099
0,0,0.776042
0,0,0.826354
0,0,0.774271
0,0,0.809583
0,0,0.772917
0,0,0.776094
0,0,0.769584
0,0,0.85974
0,0,0.776666
0,0,0.773906
0,0,0.788333
2,2,0.81875
0,0,0.775209
0,0,0.778594
0,0,0.773333
0,0,0.800469
0,0,0.780417
2,2,0.783125
0,0,0.777187
0,0,0.775364
0,0,0.803073
0,0,0.780885
0,0,0.780365
0,0,0.7775
0,0,0.820677
0,0,0.77474
0,0,0.773802
0,0,0.779271
0,0,0.805208
0,0,0.774323
1,0,0.78224
0,0,0.836771
0,0,0.835209
0,0,0.774011
1,1,0.772761
0,0,0.788125
0,0,0.823333
0,0,0.785834
0,0,0.787396
0,0,0.782032
0,0,0.774375
0,0,0.798698
0,0,0.770313
1,0,0.792031
0,0,0.79026
0,0,0.825104
0,0,0.784531
0,0,0.769375
0,0,0.775417
0,0,0.818073
0,0,0.776093
2,2,0.785313
0,0,0.775105
3,3,0.799062
0,0,0.779479
0,0,0.775781
0,0,0.778282
0,0,0.778802
0,0,0.841615
0,0,0.781927
0,0,0.782969
0,0,0.842761
0,0,0.832708
0,0,0.776146
0,0,0.774376
0,0,0.775261
0,0,0.799792
0,0,0.775157
0,0,0.780833
0,0,0.77625
0,0,0.845937
0,0,0.779635
0,0,0.78052
0,0,0.780312
0,0,0.830364
0,0,0.772657
0,0,0.768802
1,1,0.773281
0,0,0.780573
0,0,0.80125
0,0,0.770521
0,0,0.776928
0,0,0.777396
0,0,0.818542
0,0,0.770469
0,0,0.777969
2,2,0.775625
0,0,0.806511
0,0,0.776719
0,0,0.786823
0,0,0.772291
0,0,0.869479
3,3,0.798177
0,0,0.771458
1,1,0.772239
0,0,0.808437
2,2,0.78677
0,0,0.769896
0,0,0.774114
0,0,0.776667
0,0,0.854375
1,1,0.774636
0,0,0.774635
0,0,0.785208
0,0,0.81026
2,2,0.770625
0,0,0.775521
0,0,0.779531
0,0,0.82625
0,0,0.775312
0,0,0.772395
0,0,0.770781
0,0,0.810469
0,0,0.769271
0,0,0.771146
2,2,0.776198
0,0,0.767344
0,0,0.788229
0,0,0.793906
0,0,0.778646
0,0,0.851094
0,0,0.806667
0,0,0.778854
0,0,0.776198
0,0,0.782396
0,0,0.822188
0,0,0.794063
0,0,0.782865
0,0,0.777031
1,1,0.80224
0,0,0.78224
0,0,0.773803
0,0,0.772865
2,2,0.83599
0,0,0.786562
0,0,0.774844
0,0,0.773958
0,0,0.771875
0,0,0.811927
0,0,0.779115
0,0,0.791198
0,0,0.769375
0,0,0.813021
0,0,0.774844
0,0,0.772865
0,0,0.773178
2,2,0.79849
0,0,0.778646
2,2,0.775209
0,0,0.775
1,1,0.858021
0,0,0.780781
0,0,0.779114
0,0,0.778438
0,0,0.781615
0,0,0.794218
0,0,0.770885
0,0,0.771458
2,2,0.770833
2,2,0.817239
0,0,0.779323
0,0,0.770677
0,0,0.768281
0,0,0.806458
0,0,0.765313
0,0,0.77349
0,0,0.766302
0,0,0.798542
0,0,0.776875
0,0,0.778906
0,0,0.769791
0,0,0.767188
0,0,0.805469
0,0,0.772916
2,2,0.770417
0,0,0.768073
0,0,0.811146
0,0,0.771459
0,0,0.768542
0,0,0.768646
0,0,0.86349
0,0,0.775
0,0,0.770157
0,0,0.778542
0,0,0.830573
0,0,0.765729
0,0,0.770886
0,0,0.773178
2,2,0.774635
0,0,0.819427
2,2,0.775989
0,0,0.770052
0,0,0.768594
0,0,0.805417
0,0,0.775521
1,0,0.771406
0,0,0.768281
2,2,0.820833
1,1,0.78401
0,0,0.779844
0,0,0.775573
0,0,0.809584
0,0,0.775573
0,0,0.775573
0,0,0.775104
0,0,0.768645
2,2,0.819428
0,0,0.769427
0,0,0.774323
0,0,0.776458
0,0,0.914531
0,0,0.781771
0,0,0.781562
0,0,0.769583
0,0,0.823333
2,2,0.771718
0,0,0.768698
0,0,0.767969
0,0,0.802864
2,2,0.770781
0,0,0.769948
0,0,0.769948
0,0,0.797604
0,0,0.770677
0,0,0.780886
0,0,0.771146
0,0,0.769063
0,0,0.818698
0,0,0.775052
0,0,0.76927
0,0,0.774375
0,0,0.803542
0,0,0.769896
3,0,0.781354
0,0,0.770625
0,0,0.814375
0,0,0.773386
0,0,0.779844
0,0,0.775625
1,1,0.820834
0,0,0.813282
1,0,0.771303
0,0,0.771719
0,0,0.769167
0,0,0.799531
0,0,0.773958
0,0,0.770678
0,0,0.791511
0,0,0.792812
0,0,0.777448
0,0,0.771927
0,0,0.792292
0,0,0.902031
0,0,0.905729
0,0,0.873751
1,1,0.891927
0,0,1.044219
0,0,0.957969
0,0,0.866823
0,0,0.88125
0,0,0.779115
0,0,0.775156
0,0,0.789167
2,2,0.795105
0,0,0.781302
0,0,0.783073
0,0,1.056459
0,0,0.817604
0,0,0.804792
0,0,0.903489
0,0,0.800677
0,0,0.827864
0,0,0.774479
0,0,0.772396
0,0,0.766875
0,0,0.767552
2,2,0.81875
0,0,0.773855
0,0,0.768958
0,0,0.768385
0,0,0.817813
0,0,0.765625
0,0,0.768802
0,0,0.790157
0,0,0.849271
0,0,0.776771
0,0,0.783125
0,0,0.781302
0,0,0.813177
0,0,0.78125
0,0,0.774948
0,0,0.788802
1,1,0.803021
0,0,0.765834
0,0,0.772552
0,0,0.770626
0,0,0.768438
0,0,0.813385
0,0,0.775001
0,0,0.839479
0,0,0.775104
0,0,0.820781
0,0,0.776146
0,0,0.791302
0,0,0.77526
0,0,0.804948
0,0,0.770833
0,0,0.77526
0,0,0.771719
0,0,0.825312
0,0,0.784011
2,2,0.770781
0,0,0.772188
0,0,0.7725
0,0,0.8275
0,0,0.776667
0,0,0.777448
0,0,0.778281
0,0,0.795261
2,2,0.783334
0,0,0.775833
0,0,0.77875
0,0,0.808542
0,0,0.780573
0,0,0.774687
0,0,0.767083
0,0,0.804063
0,0,0.776094
0,0,0.813959
0,0,0.829115
0,0,0.764531
0,0,0.821823
0,0,0.780781
0,0,0.772813
0,0,0.782761
0,0,0.828437
0,0,0.793385
0,0,0.774687
0,0,0.771094
0,0,0.822812
0,0,0.770052
0,0,0.765782
0,0,0.771719
0,0,0.80599
0,0,0.777812
0,0,0.774427
0,0,0.770886
0,0,0.806302
0,0,0.78323
1,1,0.770261
0,0,0.77849
0,0,0.771354
0,0,0.812448
0,0,0.768177
0,0,0.76625
0,0,0.775261
2,2,0.803072
0,0,0.774635
0,0,0.781459
0,0,0.842656
0,0,0.828125
0,0,0.777136
0,0,0.783959
0,0,0.787969
0,0,0.814531
0,0,0.777708
0,0,0.773333
0,0,0.774896
0,0,0.777031
0,0,0.791511
2,2,0.781875
0,0,0.772344
0,0,0.77599
0,0,0.801771
0,0,0.776145
0,0,0.778281
0,0,0.775573
0,0,0.845365
0,0,0.774427
0,0,0.776458
0,0,0.77474
0,0,0.825521
0,0,0.775313
0,0,0.767917
0,0,0.775834
0,0,0.772812
0,0,0.802969
0,0,0.770261
0,0,0.77177
0,0,0.866146
0,0,0.815886
0,0,0.766146
0,0,0.785261
0,0,0.77401
0,0,0.810261
0,0,0.774063
0,0,0.776562
1,1,0.786615
0,0,0.798698
0,0,0.786719
0,0,0.765313
3,3,0.775521
0,0,0.816927
0,0,0.772343
0,0,0.773125
0,0,0.771666
0,0,0.776667
0,0,0.807812
0,0,0.769323
0,0,0.768959
0,0,0.783438
0,0,0.806041
0,0,0.775677
0,0,0.776302
0,0,0.772813
0,0,0.801771
0,0,0.766771
0,0,0.76875
0,0,0.767969
0,0,0.834948
0,0,0.772135
0,0,0.769011
0,0,0.768802
0,0,0.770312
0,0,0.797448
0,0,0.770208
0,0,0.786875
0,0,0.773542
0,0,0.823438
2,0,0.78349
0,0,0.771511
2,2,0.768958
0,0,0.805729
0,0,0.775157
0,0,0.766355
0,0,0.764635
0,0,0.831615
0,0,0.774011
0,0,0.764531
0,0,0.771354
0,0,0.779062
0,0,0.817292
0,0,0.763541
2,2,0.769063
0,0,0.768281
0,0,0.803594
0,0,0.771407
0,0,0.780052
0,0,0.844011
0,0,0.808542
0,0,0.77
0,0,0.772448
1,0,0.772292
0,0,0.812084
0,0,0.773125
0,0,0.773334
0,0,0.771823
0,0,0.766979
0,0,0.815105
0,0,0.773906
0,0,0.77599
0,0,0.764532
0,0,0.828229
0,0,0.770208
0,0,0.767031
0,0,0.773438
0,0,0.811719
0,0,0.780989
0,0,0.768438
2,2,0.769062
0,0,0.808177
0,0,0.769948
0,0,0.768698
0,0,0.775157
0,0,0.775209
0,0,0.791354
0,0,0.770521
0,0,0.782865
0,0,0.818854
0,0,0.833177
0,0,0.767709
2,2,0.773698
0,0,0.779896
0,0,0.805052
0,0,0.777396
0,0,0.785052
0,0,0.775886
0,0,0.831614
3,3,0.771042
0,0,0.773386
0,0,0.775521
0,0,0.812657
0,0,0.778125
0,0,0.772708
0,0,0.772604
0,0,0.769583
0,0,0.868958
0,0,0.768698
0,0,0.773906
0,0,0.777553
0,0,0.798385
2,2,0.779532
0,0,0.766719
0,0,0.764167
0,0,0.810313
0,0,0.776146
2,2,0.768906
0,0,0.787969
0,0,0.874739
0,0,0.781511
0,0,0.770052
0,0,0.769323
0,0,0.772604
0,0,0.83349
2,2,0.770938
0,0,0.779479
0,0,0.769271
0,0,0.804323
0,0,0.770834
0,0,0.768906
0,0,0.767032
0,0,0.794271
0,0,0.787448
0,0,0.767605
0,0,0.770625
0,0,0.813073
0,0,0.782083
0,0,0.777084
0,0,0.786094
0,0,0.781615
0,0,0.822865
0,0,0.786146
2,2,0.782187
0,0,0.775833
0,0,0.81974
0,0,0.776614
0,0,0.78599
0,0,0.77573
0,0,0.906667
0,0,0.781042
0,0,0.780157
0,0,0.774427
0,0,0.822396
0,0,0.774115
0,0,0.783073
0,0,0.775
0,0,0.814427
3,2,0.774167
0,0,0.773073
0,0,0.778334
2,2,0.790625
2,2,0.817031
0,0,0.774375
0,0,0.77474
0,0,0.771459
0,0,0.818542
0,0,0.773021
0,0,0.776302
0,0,0.775
0,0,0.794687
0,0,0.766041
0,0,0.76776
0,0,0.777656
0,0,0.833542
0,0,0.773542
2,2,0.783334
0,0,0.778073
2,2,0.810313
0,0,0.822136
0,0,0.771719
0,0,0.788958
0,0,0.77198
0,0,0.795208
0,0,0.776771
0,0,0.775937
0,0,0.770417
0,0,0.813281
2,2,0.778645
0,0,0.769791
0,0,0.78151
0,0,0.799166
0,0,0.767031
0,0,0.765209
2,2,0.781094
0,0,0.806667
0,0,0.771042
0,0,0.771875
0,0,0.780417
0,0,0.775521
0,0,0.834583
0,0,0.783281
0,0,0.771927
0,0,0.771354
0,0,0.816355
0,0,0.788281
0,0,0.773542
0,0,0.76974
0,0,0.902084
0,0,0.767969
0,0,0.777136
0,0,0.773021
0,0,0.790885
0,0,0.769323
0,0,0.776615
0,0,0.7725
0,0,0.767812
0,0,0.802084
0,0,0.766771
0,0,0.778907
0,0,0.777396
2,2,0.80474
3,0,0.781459
1,0,0.773854
0,0,0.7725
0,0,0.83349
0,0,0.769114
0,0,0.769375
0,0,0.772031
0,0,0.809271
0,0,0.766771
0,0,0.771145
2,2,0.767292
0,0,0.783386
0,0,0.798073
0,0,0.770781
0,0,0.768542
0,0,0.77323
0,0,0.873073
0,0,0.778646
2,2,0.770833
0,0,0.767395
2,2,0.825
0,0,0.767865
1,1,0.767187
1,1,0.768802
0,0,0.808333
2,2,0.769375
0,0,0.7675
2,2,0.773178
0,0,0.769791
0,0,0.856146
1,1,0.774635
0,0,0.772031
0,0,0.769427
0,0,0.812344
0,0,0.780729
0,0,0.776354
0,0,0.773334
0,0,0.806459
0,0,0.777187
0,0,0.77349
0,0,0.776458
0,0,0.798021
0,0,0.778073
0,0,0.782969
0,0,0.770885
0,0,0.798802
0,0,0.832188
0,0,0.779167
0,0,0.774375
0,0,0.78125
0,0,0.813334
0,0,0.779427
2,2,1.670209
0,0,1.160938
0,0,0.973854
0,0,0.935729
0,0,1.04526
0,0,0.948385
0,0,0.988489
0,0,1.099636
0,0,0.998802
2,2,0.976667
0,0,1.067656
0,0,0.949688
0,0,0.937344
0,0,0.930469
0,0,1.026458
0,0,0.929427
0,0,0.931355
0,0,0.956771
0,0,0.941615
0,0,0.934323
0,0,0.934583
0,0,1.035938
0,0,0.934688
2,2,0.935782
0,0,1.007448
0,0,0.92625
0,0,0.919323
0,0,0.921146
0,0,0.978437
0,0,0.924948
0,0,1.03224
0,0,1.046354
0,0,0.927031
1,1,0.933698
2,2,0.93099
0,0,0.986251
0,0,0.922552
0,0,0.920937
0,0,1.01724
0,0,0.92651
0,0,0.918854
0,0,0.925208
0,0,1.015104
0,0,0.936771
0,0,0.911198
0,0,0.993646
0,0,0.928229
0,0,0.915677
0,0,0.926146
0,0,1.002552
0,0,0.928334
0,0,0.929323
0,0,0.963177
0,0,0.919948
0,0,0.933698
0,0,0.926771
0,0,1.006303
0,0,0.92073
0,0,0.919844
0,0,0.970677
0,0,1.035468
0,0,0.931666
0,0,0.923282
0,0,1.036094
0,0,0.92
0,0,0.921303
0,0,0.987188
0,0,0.91974
0,0,0.933594
0,0,0.93724
0,0,0.954271
0,0,0.922865
0,0,0.912761
0,0,0.95151
0,0,0.925209
0,0,0.936355
0,0,0.917501
0,0,1.019792
0,0,0.925104
0,0,0.933802
0,0,0.97875
0,0,0.936771
0,0,0.920937
1,1,0.917344
0,0,1.025
0,0,0.934115
1,1,0.918907
0,0,0.986511
0,0,0.917031
0,0,0.938073
0,0,1.051302
0,0,0.998021
0,0,1.047708
0,0,1.072709
0,0,1.089583
0,0,1.142656
0,0,1.00151
1,1,1.067969
0,0,0.983073
0,0,0.961719
0,0,1.0525
0,0,0.987969
0,0,0.983437
0,0,0.991354
0,0,1.038385
0,0,0.968021
0,0,0.978698
0,0,1.084531
0,0,1.081615
0,0,1.119636
0,0,1.155261
0,0,1.049115
0,0,1.079375
0,0,1.107709
0,0,1.088177
0,0,1.076094
0,0,1.147448
0,0,1.081093
0,0,1.099896
0,0,1.058385
0,0,1.093906
0,0,0.95974
0,0,1.122344
1,0,1.058073
0,0,1.109635
0,0,1.184323
0,0,1.077552
0,0,1.045
2,2,1.031093
0,0,1.136771
0,0,1.174688
0,0,1.045729
0,0,1.006719
1,1,0.923282
0,0,0.923698
0,0,0.96448
0,0,0.92349
0,0,0.929219
0,0,0.972709
0,0,0.921094
0,0,0.921719
0,0,0.915625
0,0,0.999636
0,0,0.922291
0,0,0.922813
0,0,0.994844
0,0,0.921094
0,0,0.913594
0,0,0.933594
0,0,0.964427
2,2,1.006146
0,0,0.915156
0,0,0.956198
0,0,0.925469
2,2,0.922552
2,2,0.9125
0,0,0.99401
0,0,0.922187
0,0,0.911875
0,0,0.951406
0,0,0.949167
0,0,0.933958
0,0,0.963698
0,0,1.025052
0,0,0.92427
0,0,0.927604
0,0,0.915053
0,0,1.033489
0,0,0.963177
0,0,0.922292
0,0,0.956823
0,0,0.933489
0,0,0.9425
2,2,0.914688
0,0,1.015782
0,0,0.940052
0,0,0.924323
0,0,0.984479
0,0,0.929948
0,0,1.06526
0,0,1.019583
0,0,0.92474
0,0,0.914428
0,0,0.947344
0,0,1.05375
0,0,0.928802
0,0,0.9275
0,0,1.00625
0,0,0.918542
0,0,0.943854
0,0,0.920052
0,0,0.985626
0,0,0.934062
0,0,0.915885
0,0,0.959375
0,0,0.972864
2,2,0.925209
0,0,0.917813
0,0,0.999531
0,0,0.917604
0,0,0.930938
0,0,0.974531
0,0,0.918073
0,0,0.913646
0,0,0.947552
0,0,0.997032
0,0,0.938281
0,0,0.966198
0,0,1.004688
0,0,0.9975
0,0,0.928854
0,0,0.953021
0,0,0.987292
0,0,0.947552
0,0,0.925834
0,0,0.961198
0,0,0.931875
0,0,0.929062
0,0,0.952292
0,0,1.045677
0,0,0.929583
0,0,0.938906
0,0,1.005261
0,0,0.921615
0,0,0.92625
0,0,0.95901
0,0,1.045729
0,0,0.925052
0,0,0.931979
0,0,0.966094
0,0,0.939583
0,0,0.931667
0,0,0.926094
0,0,0.956667
0,0,0.951771
0,0,0.928229
0,0,0.985364
0,0,0.952969
0,0,0.921511
0,0,0.999167
2,2,1.019636
0,0,0.910885
0,0,0.94651
0,0,1.0125
0,0,0.914479
0,0,0.909219
0,0,0.957865
0,0,0.991563
0,0,0.923386
0,0,0.924219
0,0,0.997709
0,0,0.926042
0,0,0.949167
0,0,0.931511
0,0,1.001458
2,2,0.953437
1,1,0.924063
0,0,0.958229
0,0,0.975104
0,0,0.921771
0,0,0.92849
0,0,1.025365
0,0,0.936615
0,0,0.925521
0,0,0.982031
0,0,0.92375
0,0,0.944635
0,0,0.924635
0,0,1.109375
0,0,1.063594
0,0,0.931771
0,0,1.046146
0,0,0.915886
2,2,0.946094
0,0,0.977604
0,0,0.926771
0,0,0.936354
2,2,0.926563
0,0,1.010521
1,1,0.950365
0,0,0.915
0,0,0.98375
0,0,0.939062
0,0,0.915521
0,0,0.92198
0,0,1.015156
0,0,0.940052
0,0,1.013333
1,0,1.0625
0,0,0.970208
0,0,0.972396
0,0,0.986823
0,0,0.924531
0,0,0.934532
0,0,0.941823
0,0,0.99
0,0,0.934948
0,0,0.932552
0,0,0.955365
0,0,1.0425
0,0,0.919584
0,0,0.952448
0,0,1.024271
0,0,0.916615
0,0,0.912865
0,0,1.018594
0,0,0.913229
0,0,0.938542
0,0,0.913178
0,0,1.006927
3,3,0.937604
0,0,0.922188
0,0,1.001303
0,0,0.939323
0,0,0.917865
0,0,0.925156
0,0,0.993958
0,0,0.928802
0,0,0.918698
0,0,0.978281
0,0,0.934115
0,0,0.955208
0,0,0.916562
0,0,1.01474
0,0,0.927813
0,0,0.926198
0,0,1.044167
0,0,0.967657
2,2,0.993646
0,0,1.025938
0,0,0.941563
0,0,0.926355
0,0,0.935156
0,0,0.989114
0,0,0.924011
0,0,1.028334
0,0,0.95651
1,1,0.922865
0,0,0.93151
0,0,0.925781
0,0,1.020365
0,0,0.927083
0,0,0.929948
0,0,0.98224
0,0,0.931615
0,0,0.916563
0,0,0.914896
0,0,1.009896
0,0,0.935886
0,0,0.941771
0,0,1.008178
0,0,0.918803
0,0,0.944948
0,0,0.913593
0,0,0.99474
0,0,0.922136
0,0,0.92948
0,0,0.956302
0,0,0.989375
0,0,0.94776
0,0,0.924896
0,0,0.991771
0,0,0.925104
0,0,0.932136
0,0,1.004792
0,0,0.92526
0,0,0.914792
0,0,0.943177
0,0,0.974791
0,0,0.975156
0,0,0.913385
0,0,1.035053
0,0,0.933333
0,0,0.922396
0,0,0.920469
1,1,1.033698
0,0,0.91375
0,0,0.926823
0,0,0.953177
0,0,0.931302
0,0,0.913541
0,0,0.929896
0,0,0.993594
0,0,0.938906
0,0,0.923855
0,0,1.005469
0,0,0.910834
0,0,0.934219
0,0,1.0125
2,2,0.970625
0,0,0.918333
0,0,0.935104
0,0,1.028906
0,0,0.932917
0,0,0.911093
0,0,0.954062
2,2,0.979011
0,0,0.912969
0,0,0.913177
0,0,0.986615
0,0,0.915782
0,0,0.927812
0,0,0.924531
0,0,0.970521
0,0,0.919636
0,0,0.924688
0,0,0.994687
0,0,0.930729
0,0,0.914531
0,0,0.920885
0,0,0.995365
0,0,0.937864
0,0,0.916563
0,0,0.994479
0,0,0.922136
0,0,0.936354
0,0,0.930156
0,0,0.993646
0,0,1.063229
0,0,0.921198
0,0,0.981614
2,2,0.931302
0,0,0.928958
0,0,0.927812
0,0,0.965
0,0,0.918334
0,0,0.929479
1,0,0.997344
2,2,0.925573
0,0,0.913437
2,2,0.951667
0,0,0.961927
0,0,0.917969
0,0,0.92125
0,0,1.03224
0,0,0.917396
0,0,0.921198
0,0,0.914844
0,0,0.986979
1,0,0.924895
0,0,0.950417
0,0,0.942865
0,0,0.927865
0,0,0.938958
2,2,0.917604
0,0,0.968698
0,0,0.94
0,0,0.916667
0,0,1.047448
0,0,0.912032
0,0,0.930938
0,0,0.911458
0,0,0.979271
0,0,0.930834
0,0,0.937865
0,0,0.982969
1,1,0.937761
0,0,0.915729
0,0,0.941302
0,0,0.975625
0,0,0.919376
0,0,0.908594
0,0,0.979271
0,0,0.955313
0,0,0.919323
0,0,0.9225
0,0,0.996198
0,0,0.911614
0,0,0.939531
0,0,0.991875
0,0,0.920625
0,0,0.933854
0,0,0.916719
0,0,0.97776
0,0,0.914531
0,0,0.911198
0,0,0.920469
0,0,1.119896
0,0,0.926458
0,0,0.931718
0,0,0.988646
0,0,0.93198
0,0,0.926718
0,0,0.96552
0,0,0.9275
0,0,0.926718
0,0,0.932344
1,1,1.019531
0,0,0.923698
0,0,0.986667
0,0,0.985885
0,0,0.935573
0,0,0.91776
0,0,0.939219
0,0,0.966406
0,0,0.926563
0,0,0.919115
0,0,1.036562
0,0,0.923334
0,0,0.958021
0,0,0.915573
0,0,1.022344
2,2,0.94526
0,0,0.923803
0,0,0.964688
2,2,0.946719
0,0,0.912448
0,0,1.037395
0,0,0.989167
0,0,0.934323
0,0,0.913594
0,0,0.993125
0,0,0.941927
0,0,0.91599
0,0,0.918698
0,0,0.9975
0,0,0.924532
0,0,0.918386
1,1,0.98974
0,0,0.924479
0,0,0.949271
0,0,0.91151
0,0,1.00474
0,0,0.922552
0,0,0.933802
0,0,0.981719
0,0,0.92677
0,0,0.922865
0,0,0.933594
0,0,0.969739
0,0,0.916458
0,0,0.919479
0,0,1.06099
0,0,0.915521
0,0,0.943385
0,0,0.922239
0,0,0.981823
0,0,1.038438
0,0,0.925208
0,0,1.047916
0,0,0.946666
0,0,0.923229
0,0,0.932448
0,0,0.996876
0,0,0.943958
0,0,0.915469
0,0,0.987656
0,0,0.943385
0,0,0.925885
0,0,0.912343
0,0,1.056459
0,0,0.91474
0,0,0.926302
0,0,0.978177
0,0,0.919688
0,0,0.937188
0,0,0.922656
0,0,0.974271
0,0,0.91375
0,0,0.939531
0,0,1.029063
2,2,0.923281
0,0,0.921667
0,0,0.931511
0,0,1.014271
0,0,0.915833
0,0,0.927083
0,0,1.109219
0,0,0.931302
0,0,0.919479
0,0,0.913333
0,0,0.963698
0,0,0.918906
0,0,0.931354
0,0,0.985886
0,0,0.924375
0,0,0.913178
0,0,0.915157
0,0,0.972604
0,0,0.945938
0,0,0.915156
0,0,1.002761
0,0,0.916563
2,2,0.935469
0,0,0.909844
0,0,1.011302
0,0,0.931771
0,0,0.940313
0,0,0.9475
0,0,0.926354
0,0,0.924532
0,0,0.926875
0,0,0.961354
0,0,0.954271
0,0,0.930313
0,1,1.004844
0,0,0.932084
0,0,1.010156
0,0,0.924792
0,0,0.98276
0,0,0.930417
0,0,0.917396
0,0,1.034948
0,0,0.930521
0,0,0.924896
0,0,0.929063
0,0,1.017552
2,2,0.93276
0,0,0.923854
0,0,0.972188
0,0,0.926875
0,0,0.925937
0,0,0.920677
0,0,0.966875
0,0,0.924948
0,0,0.92901
0,0,1.022187
0,0,0.926615
0,0,0.914218
0,0,0.962396
0,0,0.985625
0,0,0.926511
0,0,0.937188
0,0,1.005365
0,0,0.920677
0,0,0.932656
0,0,0.932969
0,0,1.136094
0,0,0.936198
2,2,0.920781
0,0,0.975886
0,0,0.922292
0,0,0.917031
0,0,0.920469
0,0,0.988126
0,0,0.919844
0,0,0.912135
0,0,0.971615
2,2,0.91401
0,0,0.914792
0,0,0.940989
0,0,1.013646
0,0,0.925885
0,0,0.919062
0,0,1.028229
2,2,0.921407
3,3,0.92599
0,0,0.914635
0,0,1.005989
0,0,0.921094
0,0,0.935938
0,0,0.977188
0,0,0.933646
0,0,0.919531
0,0,0.94125
0,0,0.98724
0,0,1.033125
2,2,0.943959
2,2,0.988854
0,0,0.919844
0,0,0.915938
0,0,0.920729
0,0,1.00651
0,0,0.935573
0,0,0.949115
1,1,1.015886
0,0,0.932916
0,0,0.935573
0,0,0.910938
3,3,1.002291
2,2,0.924843
0,0,0.927552
0,0,0.966041
0,0,0.935209
0,0,0.918958
0,0,0.926355
2,2,0.961562
0,0,0.961146
0,0,0.91026
0,0,0.99875
0,0,0.938177
0,0,0.938281
0,0,0.928541
0,0,0.991615
0,0,0.923698
0,0,0.917812
0,0,1.12125
0,0,0.923959
0,0,0.937292
0,0,0.934948
0,0,1.021146
0,0,0.914271
0,0,0.922969
0,0,0.966719
0,0,0.92125
0,0,0.928959
0,0,0.927031
0,0,0.955
0,0,0.919323
2,2,0.921459
0,0,0.98349
0,0,0.917552
0,0,0.909323
0,0,0.938438
0,0,0.98099
0,0,0.930677
0,0,0.928803
2,2,1.025261
0,0,0.932813
0,0,0.935886
0,0,0.953646
0,0,0.97625
0,0,0.916407
0,0,0.951459
1,1,0.946198
0,0,0.923125
0,0,1.018385
0,0,0.927969
0,0,0.976042
0,0,0.91526
0,0,0.923698
0,0,0.995417
0,0,0.911354
0,0,0.932969
0,0,0.914271
0,0,0.974218
0,0,0.981719
0,0,0.965312
0,0,1.048698
2,2,0.989843
0,0,1.010417
0,0,1.074062
0,0,0.98599
0,0,0.993959
0,0,1.000365
0,0,1.030365
0,0,1.074583
0,0,1.054323
0,0,1.017656
1,1,1.035105
0,0,1.012501
0,0,1.069167
0,0,1.042916
0,0,1.150468
2,2,1.037032
0,0,1.012135
0,0,1.112657
0,0,1.120886
0,0,1.06198
0,0,1.149323
0,0,1.178282
0,0,1.109844
2,2,1.114896
0,0,1.053177
0,0,0.94026
0,0,1.010781
0,0,1.059688
0,0,1.181615
0,0,0.925
0,0,0.92974
0,0,0.965781
0,0,0.93276
0,0,0.940416
0,0,1.021979
2,2,0.937344
0,0,0.913282
0,0,0.944167
0,0,1.004219
0,0,0.944115
0,0,0.934011
0,0,0.951719
0,0,0.915469
0,0,0.925833
0,0,0.911094
0,0,0.990208
0,0,0.929271
0,0,1.029636
0,0,0.95974
0,0,0.944532
0,0,0.964635
0,0,0.938282
0,0,0.965677
0,0,0.934791
0,0,0.921875
0,0,0.979687
0,0,0.915365
0,0,0.919219
0,0,0.925365
0,0,1.005521
0,0,0.940989
0,0,0.929427
0,0,1.006354
0,0,0.936511
0,0,0.920677
0,0,0.951666
0,0,0.989428
0,0,0.926354
0,0,0.914271
0,0,0.972343
1,1,0.926511
0,0,0.916979
0,0,0.922656
0,0,0.969427
3,3,0.946198
0,0,0.936094
0,0,1.123177
0,0,0.922761
0,0,0.937969
0,0,0.916198
0,0,1.05849
0,0,0.93
0,0,0.916407
0,0,0.963125
0,0,0.918855
0,0,0.925729
0,0,0.958281
0,0,1.005938
0,0,0.914531
2,2,0.930729
0,0,0.98026
0,0,0.914688
0,0,0.941823
0,0,0.918073
0,0,0.975105
0,0,0.918802
0,0,0.926979
0,0,1.02375
0,0,0.918542
0,0,0.920469
0,0,0.926354
0,0,1.002448
0,0,0.933698
0,0,0.936823
0,0,0.951927
0,0,0.930417
0,0,1.017709
0,0,0.914531
2,2,0.987969
0,0,0.94099
0,0,0.988906
0,0,0.976042
0,0,0.922031
0,0,0.917032
0,0,0.915313
0,0,0.987136
0,0,0.918281
2,2,0.935521
2,2,0.95802
1,1,0.914375
0,0,0.911406
2,2,0.917031
0,0,0.986198
0,0,0.923646
0,0,0.915625
0,0,0.961719
0,0,0.907344
0,0,0.921927
0,0,0.930365
0,0,0.994062
0,0,0.913698
0,0,0.933177
0,0,0.910417
0,0,0.975521
0,0,0.917865
0,0,0.922292
0,0,1.039323
0,0,0.929583
1,1,0.914115
2,2,0.917239
0,0,1.004636
0,0,0.920937
0,0,0.923698
0,0,0.995469
0,0,0.92349
0,0,0.926459
0,0,0.918385
0,0,0.966042
0,0,0.959688
0,0,0.929427
0,0,0.97948
0,0,0.95026
0,0,0.925625
0,0,0.917083
0,0,0.957135
0,0,0.91849
2,2,0.929531
0,0,0.957968
2,2,0.917761
0,0,0.935677
0,0,0.917448
0,0,0.989739
0,0,0.921666
0,0,0.912187
0,0,0.989167
0,0,0.926198
2,2,0.99
0,0,0.909583
0,0,1.022917
1,1,0.912865
0,0,0.92526
0,0,0.966666
0,0,0.930417
0,0,0.916302
0,0,0.920417
2,2,0.972188
2,2,0.925989
0,0,0.912552
2,2,0.960521
0,0,0.91625
0,0,0.925625
0,0,0.91052
0,0,1.004635
0,0,0.913855
0,0,0.927083
0,0,1.019583
0,0,0.922604
0,0,0.90901
0,0,0.927761
0,0,0.956771
3,3,0.921354
0,0,0.951719
0,0,0.937761
0,0,1.005417
0,0,0.932708
0,0,0.924844
0,0,1.091927
0,0,0.919583
2,2,0.928698
0,0,0.999479
0,0,0.912136
0,0,0.916251
0,0,0.95875
0,0,1.013958
2,2,0.918177
1,1,0.918906
0,0,1.023854
0,0,0.929323
0,0,0.918542
0,2,0.92026
0,0,0.960156
0,0,0.916355
0,0,0.916406
0,0,1.010261
0,0,0.951927
0,0,0.929479
0,0,0.939636
0,0,0.962916
0,0,0.931042
0,0,0.955469
0,0,0.975364
0,0,0.924688
0,0,0.920365
2,2,0.917604
0,0,0.99323
0,0,0.932239
0,0,1.0
0,0,1.006823
0,0,0.923125
0,0,0.923854
0,0,0.915937
2,2,0.968803
0,0,0.916094
0,0,0.922916
0,0,0.925625
0,0,1.024063
3,3,0.922188
0,0,0.948073
0,0,0.980365
0,0,0.923542
0,0,0.947553
0,0,0.926875
0,0,0.95
0,0,0.948542
0,0,0.918854
0,0,0.998593
0,0,0.919948
0,0,0.92125
0,0,0.927292
2,2,1.011042
0,0,0.930886
0,0,0.9325
0,0,0.964271
0,0,0.911875
2,2,0.951823
0,0,1.135834
0,0,0.939688
0,0,0.956614
0,0,0.930365
0,0,0.9775
0,0,0.933698
2,2,0.919063
0,0,0.993958
0,0,0.913906
0,0,0.930364
0,0,0.921614
0,0,0.994115
0,0,0.91625
0,0,0.946927
0,0,0.976823
0,0,0.937448
0,0,0.944895
0,0,0.923438
0,0,0.986562
0,0,0.926927
0,0,0.91552
0,0,0.971562
0,0,0.927136
0,0,0.922812
0,0,0.922396
0,0,0.988021
0,0,0.921458
1,1,0.943489
0,0,0.911198
0,0,0.970312
0,0,1.027657
0,0,0.936302
0,0,0.995052
0,0,0.934843
0,0,0.910053
0,0,0.922865
0,0,1.020469
2,2,0.943281
0,0,0.926875
0,0,1.00099
0,0,0.939844
0,0,0.934948
0,0,0.980989
0,0,0.927344
0,0,0.925469
0,0,0.916042
0,0,0.96974
0,0,0.944688
0,0,0.933021
0,0,0.913698
0,0,0.989948
0,0,0.918958
0,0,0.920782
0,0,0.99526
0,0,0.930104
0,0,1.002188
0,0,0.989479
0,0,0.929219
2,2,0.947812
0,0,0.916406
0,0,1.099636
0,0,0.951719
0,0,1.024896
0,0,1.002917
0,0,0.933698
0,0,0.917188
0,0,0.924479
0,0,0.985
0,0,0.925937
0,0,0.915156
0,0,0.996615
2,2,0.918646
0,0,0.935573
0,0,0.917656
0,0,1.001302
0,0,0.934271
0,0,0.929115
0,0,1.011354
0,0,0.931146
0,0,0.930104
0,0,0.935104
0,0,0.960625
0,0,0.917187
0,0,0.949011
0,0,1.034062
0,0,0.792344
0,0,0.788073
0,0,0.784948
0,0,0.899063
0,0,0.795104
0,0,0.880417
0,0,0.785625
0,0,0.8225
0,0,0.790521
0,0,0.789427
0,0,0.793958
0,0,0.927656
0,0,0.784792
0,0,0.787656
0,0,0.796719
0,0,0.78224
0,0,0.868177
0,0,0.802604
2,2,0.783906
0,0,0.787396
0,0,0.844636
0,0,0.789896
0,0,0.791145
0,0,0.797084
0,0,0.886615
0,0,0.798334
0,0,0.798855
0,0,0.794375
0,0,0.831979
0,0,0.789584
0,0,0.800782
0,0,0.79573
2,2,0.858698
2,2,0.789323
0,0,0.792396
0,0,0.889271
0,0,0.879792
0,0,0.802708
0,0,0.812187
0,0,0.793802
0,0,0.88375
0,0,0.802344
0,0,0.793177
0,0,0.79151
0,0,0.855885
0,0,0.782395
0,0,0.797552
0,0,0.784427
0,0,0.862448
0,0,0.789428
0,0,0.801823
0,0,0.791302
0,0,0.824688
0,0,0.787239
0,0,0.788594
0,0,0.787916
0,0,0.826407
0,0,0.822292
0,0,0.824219
0,0,0.793646
0,0,0.797344
0,0,0.882292
0,0,0.790781
0,0,0.8025
0,0,0.88599
1,1,0.892136
0,0,0.797396
0,0,0.785781
0,0,0.784948
0,0,0.816042
1,1,0.794739
2,2,0.794479
0,0,0.784948
0,0,0.856979
0,0,0.800312
2,2,0.797709
0,0,0.78849
0,0,0.843907
2,2,0.795885
0,0,0.785417
0,0,0.786094
0,0,0.836771
0,0,0.793854
0,0,0.789635
0,0,0.796041
0,0,0.894896
0,0,0.786927
0,0,0.791979
0,0,0.796719
0,0,0.876927
0,0,0.786562
0,0,0.792916
0,0,0.78099
0,0,0.832344
0,0,0.866718
0,0,0.800625
0,0,0.790365
2,2,0.875416
0,0,0.80401
0,0,0.79276
2,2,0.791563
0,0,0.812553
0,0,0.795261
0,0,0.790886
0,0,0.787813
0,0,0.792448
0,0,0.883594
0,0,0.788125
0,0,0.794896
0,0,0.793855
0,0,0.848958
0,0,0.786041
0,0,0.833855
0,0,0.841146
0,0,0.982188
0,0,0.813854
1,0,0.808125
0,0,0.819687
0,0,0.893125
0,0,0.791093
2,2,0.792188
0,0,0.803541
1,1,0.915209
0,0,0.792396
0,0,0.894479
0,0,0.807656
0,0,0.888021
0,0,0.786198
0,0,0.815937
0,0,0.806979
0,0,0.852916
0,0,0.799844
0,0,0.795782
0,0,0.794896
0,0,0.90901
0,0,0.798698
0,0,0.786719
0,0,0.796407
2,2,0.885521
0,0,0.811406
0,0,0.786562
0,0,0.798281
0,0,0.84948
2,2,0.81875
0,0,0.801406
0,0,0.802968
0,0,0.854531
0,0,0.799323
0,0,0.816718
0,0,0.797604
3,3,0.879323
0,0,0.789375
0,0,0.799844
0,0,0.808385
0,0,0.96151
0,0,0.802448
0,0,0.802448
0,0,0.806406
1,1,0.869739
0,0,0.81375
0,0,0.786615
0,0,0.792448
0,0,0.884896
0,0,0.790365
0,0,0.783281
0,0,0.806146
0,0,0.880573
2,2,0.80224
0,0,0.797969
0,0,0.79474
0,0,0.865677
3,0,0.794219
0,0,0.803125
0,0,1.058386
0,0,1.001093
0,0,1.110678
0,0,0.993698
2,2,0.943958
0,0,0.833906
0,0,0.83099
0,0,0.846927
0,0,0.914948
0,0,0.846146
0,0,0.848906
0,0,41.836359
1,1,0.807031
0,0,0.809323
0,0,0.805208
3,0,0.885834
0,0,0.803854
0,0,0.795417
0,0,0.797864
0,0,0.937605
0,0,0.833125
0,0,0.797031
0,0,0.820209
0,0,0.953698
2,2,0.810416
0,0,0.813125
0,0,0.876146
0,0,0.912031
1,1,0.787083
0,0,0.770312
2,2,0.76823
0,0,0.854167
2,2,0.76974
0,0,0.767709
0,0,0.774271
0,0,0.829532
0,0,0.769115
0,0,0.772396
0,0,0.775156
0,0,0.901302
0,0,0.768334
2,2,0.819791
0,0,0.767812
0,0,0.809583
0,0,0.767813
0,0,0.763125
0,0,0.77474
0,0,0.793125
0,0,0.771094
0,0,0.770156
0,0,0.766667
0,0,0.766927
0,0,0.799375
0,0,0.773489
0,0,0.79073
2,2,0.779323
0,0,0.823021
0,0,0.769791
0,0,0.76776
0,0,0.783177
0,0,0.828594
1,1,0.780312
2,2,0.771459
0,0,0.767396
0,0,0.797136
0,0,0.78901
0,0,0.772605
0,0,0.768073
0,0,0.773333
0,0,0.801928
0,0,0.837448
0,0,0.77198
0,0,0.77573
3,3,0.799948
0,0,0.770104
2,2,0.77375
0,0,0.76875
0,0,0.811354
2,2,0.770261
0,0,0.764323
0,0,0.779167
0,0,0.798021
0,0,0.76849
0,0,0.775417
0,0,0.817709
2,2,0.889688
0,0,0.78073
2,2,0.777917
0,0,0.78099
0,0,0.791511
0,0,0.777708
0,0,0.77151
0,0,0.773489
0,0,0.772187
0,0,0.871563
0,0,0.795573
0,0,0.775833
2,2,0.772552
0,0,0.801771
0,0,0.77349
0,0,0.850782
0,0,0.769062
0,0,0.803594
1,1,0.780104
0,0,0.782656
0,0,0.771302
0,0,0.814375
0,0,0.774323
0,0,0.775521
0,0,0.768021
0,0,0.809271
0,0,0.794479
0,0,0.775312
0,0,0.765781
0,0,0.770886
0,0,0.80224
0,0,0.780052
0,0,0.775521
0,0,0.77052
0,0,0.837604
2,2,0.773333
0,0,0.769792
0,0,0.77625
0,0,0.80026
2,2,0.782135
0,0,0.780312
0,0,0.770157
0,0,0.806146
0,0,0.767761
0,0,0.777604
0,0,0.864479
0,0,0.805833
0,0,0.785157
0,0,0.772448
0,0,0.773334
0,0,0.771458
0,0,0.834531
0,0,0.77526
0,0,0.776927
0,0,0.764531
1,1,0.825052
0,0,0.771771
0,0,0.768125
0,0,0.778333
0,0,0.802343
0,0,0.76974
0,0,0.773906
0,0,0.779271
0,0,0.811823
0,0,0.780677
0,0,0.775208
0,0,0.771614
1,1,0.784219
0,0,0.795521
0,0,0.769531
0,0,0.765
0,0,0.779792
0,0,0.822604
0,0,0.770417
0,0,0.779427
0,0,0.808802
0,0,0.84776
0,0,0.775521
0,0,0.785885
0,0,0.783073
0,0,0.797708
0,0,0.792813
0,0,0.777135
0,0,0.777968
0,0,0.784063
0,0,0.8275
0,0,0.776302
0,0,0.776979
0,0,0.778073
0,0,0.805209
0,0,0.774948
0,0,0.769375
3,3,0.787969
0,0,0.79698
0,0,0.768073
0,0,0.765729
0,0,0.778854
0,0,0.813281
0,0,0.777344
0,0,0.786094
0,0,0.772708
0,0,0.816146
2,2,0.766771
0,0,0.770156
0,0,0.774584
0,0,0.837969
0,0,0.810573
0,0,0.775312
2,2,0.773698
0,0,0.775312
0,0,0.822864
0,0,0.7725
0,0,0.770209
0,0,0.765781
0,0,0.79073
0,0,0.770833
0,0,0.775104
0,0,0.771302
0,0,0.798073
0,0,0.769948
0,0,0.763541
2,2,0.768438
0,0,0.782292
0,0,0.818073
0,0,0.779687
0,0,0.783125
2,2,0.781979
0,0,0.844844
0,0,0.779792
0,0,0.77224
0,0,0.780625
0,0,0.794271
0,0,0.779063
0,0,0.77375
2,2,0.842292
0,0,0.821927
0,0,0.774791
0,0,0.784011
0,0,0.765885
0,0,0.774532
2,2,0.811927
0,0,0.812552
0,0,0.769844
0,0,0.774323
0,0,0.931719
0,0,0.768177
0,0,0.77224
0,0,0.764739
0,0,0.844583
0,0,0.79474
0,0,0.774739
0,0,0.767552
0,0,0.85198
0,0,0.788333
2,2,0.765938
0,0,0.800886
0,0,0.865208
0,0,0.811042
0,0,0.816979
0,0,0.806146
0,0,0.960052
0,0,0.856302
0,0,0.878178
0,0,0.874896
3,3,0.97375
0,0,0.840105
0,0,0.842917
0,0,0.877448
0,0,0.91177
0,0,0.880052
0,0,0.861771
0,0,0.942031
0,0,0.894532
0,0,0.848021
0,0,0.853281
0,0,0.956615
0,0,0.888542
0,0,0.88625
0,0,0.831198
2,2,0.907761
0,0,0.86026
0,0,0.818646
0,0,0.840209
0,0,0.882187
0,0,0.812188
0,0,0.781406
2,2,0.786875
0,0,0.834635
0,0,0.791667
0,0,0.796562
2,2,0.773541
0,0,0.812813
0,0,0.769792
0,0,0.771198
0,0,0.811302
1,1,0.871875
0,0,0.82948
0,0,0.83526
0,0,0.773021
0,0,0.865261
0,0,0.775625
0,0,0.775885
0,0,0.774531
0,0,0.790886
0,0,0.76776
0,0,0.765104
0,0,0.763854
0,0,0.765886
0,0,0.821146
0,0,0.77375
0,0,0.761615
0,0,0.77526
0,0,0.808333
0,0,0.769895
0,0,0.772916
0,0,0.779219
0,0,0.801771
0,0,0.772552
0,0,0.76849
0,0,0.767605
0,0,0.784635
0,0,0.768803
0,0,0.769167
2,2,0.769219
0,0,0.819948
0,0,0.84526
2,2,0.78151
0,0,0.770104
0,0,0.780365
0,0,0.804011
0,0,0.770312
0,0,0.770313
0,0,0.773386
0,0,0.792969
0,0,0.767969
0,0,0.775782
0,0,0.768906
0,0,0.811146
0,0,0.778542
0,0,0.769635
0,0,0.766563
0,0,0.763906
2,2,0.863802
0,0,0.761406
0,0,0.765781
0,0,0.76573
0,0,0.811198
0,0,0.766771
2,2,0.775364
0,0,0.776928
2,2,0.836406
0,0,0.765157
0,0,0.768281
0,0,0.766146
0,0,0.897239
0,0,0.774271
0,0,0.769114
0,0,0.766563
0,0,0.767708
0,0,0.80349
0,0,0.772136
0,0,0.770729
0,0,0.773646
0,0,0.81125
0,0,0.790625
0,0,0.782448
0,0,0.781719
0,0,0.814219
0,0,0.770729
0,0,0.78323
0,0,0.771198
0,0,0.797032
0,0,0.7675
0,0,0.774427
0,0,0.770312
0,0,0.768281
0,0,0.838334
0,0,0.769323
0,0,0.769427
0,0,0.770261
0,0,0.793698
0,0,0.770104
0,0,0.768646
0,0,0.842761
0,0,0.798438
0,0,0.767969
0,0,0.775157
3,3,0.769114
0,0,0.800886
0,0,0.76849
0,0,0.771198
0,0,0.770521
0,0,0.766302
0,0,0.803542
0,0,0.767813
0,0,0.768542
0,0,0.767031
0,0,0.809427
0,0,0.772084
0,0,0.768021
0,0,0.770886
0,0,0.839427
0,0,0.767344
0,0,0.770573
2,2,0.764896
0,0,0.794739
0,0,0.769219
0,0,0.778386
2,2,0.771979
1,1,0.764687
0,0,0.809792
2,2,0.771094
0,0,0.794791
0,0,0.8125
0,0,0.847136
0,0,0.767657
0,0,0.765885
0,0,0.770729
0,0,0.792917
0,0,0.769843
0,0,0.765729
0,0,0.765834
0,0,0.810989
0,0,0.773177
0,0,0.772553
0,0,0.769688
0,0,0.764479
0,0,0.839219
0,0,0.769323
0,0,0.777396
0,0,0.766406
0,0,0.797656
0,0,0.771094
0,0,0.770365
0,0,0.777969
0,0,0.803542
0,0,0.771562
0,0,0.773906
0,0,0.776042
0,0,0.799948
0,0,0.774114
2,2,0.773229
0,0,0.781146
0,0,0.835261
0,0,0.795834
0,0,0.774166
0,0,0.771563
0,0,0.773125
0,0,0.79375
0,0,0.777396
0,0,0.768854
0,0,0.775417
0,0,0.851719
0,0,0.772239
0,0,0.7675
0,0,0.767448
2,2,0.801406
0,0,0.773125
0,0,0.790729
2,2,0.770052
2,2,0.773073
0,0,0.810365
0,0,0.777135
0,0,0.766198
0,0,0.77776
0,0,0.824688
0,0,0.769532
0,0,0.768698
0,0,0.775885
0,0,0.801302
0,0,0.783177
0,0,0.772083
2,2,0.773907
0,0,0.87526
0,0,0.776615
0,0,0.772553
0,0,0.772396
0,0,0.769531
0,0,0.836198
0,0,0.774114
0,0,0.771667
0,0,0.776406
0,0,0.816667
0,0,0.781093
0,0,0.777343
0,0,0.779062
0,0,0.788177
1,1,0.775313
0,0,0.780521
0,0,0.773386
0,0,0.815
2,2,0.784115
0,0,0.779063
0,0,0.776458
0,0,0.788854
0,0,0.772187
0,0,0.781927
0,0,0.77349
0,0,0.771823
0,0,0.813542
0,0,0.778959
0,0,0.779584
0,0,0.77224
2,2,0.915053
2,2,0.781458
0,0,0.778803
0,0,0.77625
0,0,0.8025
2,2,0.770886
0,0,0.777448
0,0,0.785834
0,0,0.822812
0,0,0.773073
2,2,0.778385
0,0,0.784115
0,0,0.773386
0,0,0.830364
0,0,0.771979
1,0,0.774427
0,0,0.783073
0,0,0.811302
0,0,0.778646
0,0,0.77099
0,0,0.77901
0,0,0.812604
0,0,0.779063
0,0,0.785365
0,0,0.780416
0,0,0.832344
2,2,0.766928
0,0,0.77974
0,0,0.774792
2,2,0.797708
0,0,0.839427
0,0,0.774896
0,0,0.776875
0,0,0.777761
0,0,0.808698
0,0,0.772968
2,2,0.770157
0,0,0.773594
0,0,0.814531
0,0,0.786042
0,0,0.769895
0,0,0.767708
0,0,0.789323
0,0,0.770625
0,0,0.775104
0,0,0.768698
0,0,0.812917
0,0,0.771354
0,0,0.773594
0,0,0.770677
0,0,0.76776
0,0,0.851303
0,0,0.774843
0,0,0.791876
0,0,0.779427
0,0,0.804271
0,0,0.769948
0,0,0.769948
0,0,0.769584
0,0,0.867136
0,0,0.773386
0,0,0.773802
0,0,0.775209
2,2,0.807969
0,0,0.776927
0,0,0.7725
0,0,0.775729
2,2,0.806354
0,0,0.783906
0,0,0.780104
0,0,0.771719
0,0,0.779115
0,0,0.803438
0,0,0.772969
0,0,0.780677
0,0,0.778438
0,0,0.847136
0,0,0.772135
0,0,0.775417
0,0,0.779323
0,0,0.811146
0,0,0.774792
0,0,0.778177
0,0,0.772292
0,0,0.805053
0,0,0.774218
0,0,0.774791
0,0,0.779375
0,0,0.777396
0,0,0.870521
0,0,0.775156
0,0,0.77125
2,2,0.774115
0,0,0.799114
0,0,0.774479
0,0,0.768229
0,0,0.768229
0,0,0.811928
0,0,0.779635
0,0,0.770365
0,0,0.772188
0,0,0.851094
0,0,0.769218
0,0,0.775678
1,1,0.775156
0,0,0.778542
0,0,0.844375
0,0,0.771406
0,0,0.770885
2,0,0.771718
0,0,0.790313
0,0,0.779323
0,0,0.777396
0,0,0.768073
0,0,0.818437
0,0,0.781198
0,0,0.769584
2,2,0.77224
0,0,0.809584
0,0,0.832604
0,0,0.775573
0,0,0.787396
0,0,0.806875
0,0,0.772344
0,0,0.770781
3,3,0.774115
0,0,0.78875
2,2,0.854636
0,0,0.786667
2,2,0.76474
0,0,0.764323
0,0,0.796042
0,0,0.770104
0,0,0.770938
0,0,0.780261
0,0,0.788281
0,0,0.766198
0,0,0.776355
0,0,0.787812
0,0,0.806302
0,0,0.767031
2,2,0.776667
0,0,0.775677
0,0,0.776614
0,0,0.810781
0,0,0.771146
0,0,0.769687
0,0,0.765729
2,2,0.79875
0,0,0.839479
0,0,0.769687
2,2,0.794011
0,0,0.868073
0,0,0.794584
0,0,0.773854
0,0,0.777917
0,0,0.80724
0,0,0.78349
2,2,0.783958
0,0,0.778385
0,0,0.821355
0,0,0.780521
0,0,0.781354
2,2,0.777916
0,0,0.781458
0,0,0.824376
0,0,0.782708
0,0,0.788855
0,0,0.778959
0,0,0.800521
0,0,0.782188
0,0,0.783333
2,2,0.777239
0,0,0.83151
0,0,0.776875
0,0,0.777656
1,0,0.777032
0,0,0.833698
0,0,0.78224
1,1,0.840105
0,0,0.781458
0,0,0.814219
2,2,0.779115
0,0,0.782292
0,0,0.779219
0,0,0.778073
0,0,0.816614
0,0,0.771666
0,0,0.777187
2,2,0.777865
0,0,0.811511
0,0,0.770573
0,0,0.78
0,0,0.77724
2,2,0.812969
0,0,0.786875
0,0,0.782864
0,0,0.776615
0,0,0.792969
0,0,0.785521
0,0,0.787448
0,0,0.794166
0,0,0.782709
0,0,0.871979
0,0,0.783282
0,0,0.781614
3,2,0.781146
0,0,0.833959
2,2,0.845052
2,2,0.778698
0,0,0.779011
0,0,0.795573
0,0,0.772969
0,0,0.769427
0,0,0.774063
0,0,0.808333
0,0,0.772812
0,0,0.768385
0,0,0.766823
0,0,0.793178
0,0,0.772969
0,0,0.768594
0,0,0.778073
0,0,0.772032
1,1,0.809323
0,0,0.767708
0,0,0.764687
0,0,0.774115
0,0,0.863333
0,0,0.776458
2,2,0.769323
0,0,0.767239
2,2,0.79224
0,0,0.768542
0,0,0.769948
0,0,0.777917
0,0,0.788489
0,0,0.779739
0,0,0.812136
0,0,0.769011
0,0,0.774427
0,0,0.82099
0,0,0.78
0,0,0.772135
0,0,0.768333
0,0,0.80099
0,0,0.775468
0,0,0.778855
2,2,0.774479
0,0,0.813386
0,0,0.76375
0,0,0.770312
2,2,0.774219
0,0,0.835469
0,0,0.770938
0,0,0.785729
0,0,0.770729
0,0,0.769479
0,0,0.784532
0,0,0.765156
0,0,0.764636
0,0,0.765156
0,0,0.796771
0,0,0.767396
0,0,0.768646
0,0,0.768073
0,0,0.795937
1,1,0.77073
0,0,0.829062
0,0,0.773803
0,0,0.80677
0,0,0.768958
0,0,0.769167
0,0,0.763802
0,0,0.764843
0,0,0.809115
0,0,0.777083
0,0,0.779531
0,0,0.767136
0,0,0.834635
1,1,0.777344
0,0,0.770573
0,0,0.770834
0,0,0.806771
0,0,0.78849
0,0,0.774792
0,0,0.771875
0,0,0.818125
0,0,0.784375
0,0,0.781094
0,0,0.775573
0,0,0.773385
0,0,0.817291
0,0,0.772344
0,0,0.773386
3,3,0.770781
0,0,0.82526
0,0,0.785
0,0,0.827657
0,0,0.774583
0,0,0.821146
0,0,0.769843
0,0,0.771719
0,0,0.771718
0,0,0.827812
0,0,0.77224
0,0,0.770157
0,0,0.775573
0,0,0.768177
0,0,0.792031
0,0,0.776771
0,0,0.769063
0,0,0.771771
2,2,0.834479
0,0,0.77198
0,0,0.769323
0,0,0.767448
0,0,0.806667
0,0,0.768698
0,0,0.771302
0,0,0.772553
0,0,0.792187
0,0,0.772864
0,0,0.769375
0,0,0.77349
0,0,0.767969
0,0,0.787292
0,0,0.783229
0,0,0.838855
0,0,0.776511
0,0,0.844844
0,0,0.775573
0,0,0.771458
0,0,0.775365
0,0,0.807031
0,0,0.772604
0,0,0.777396
0,0,0.780677
0,0,0.882344
0,0,0.792083
0,0,0.778541
0,0,0.777187
0,0,0.817656
0,0,0.777084
0,0,0.781563
0,0,0.787552
0,0,0.797188
0,0,0.810729
0,0,0.777657
2,2,0.788021
0,0,0.775938
0,0,0.819687
0,0,0.788177
0,0,0.773438
0,0,0.791094
2,2,0.836979
0,0,0.776041
0,0,0.76901
0,0,0.845156
0,0,0.801042
0,0,0.775834
0,0,0.767605
0,0,0.773177
0,0,0.785261
0,0,0.76776
0,0,0.780104
0,0,0.767239
0,0,0.766928
0,0,0.818333
0,0,0.770312
0,0,0.769219
1,1,0.796927
0,0,0.816719
0,0,0.772344
0,0,0.770938
0,0,0.773437
0,0,0.802448
0,0,0.7675
0,0,0.775261
0,0,0.768593
0,0,0.825312
0,0,0.772813
0,0,0.774323
0,0,0.782969
2,2,0.768542
0,0,0.815052
0,0,0.771614
0,0,0.818854
0,0,0.769479
0,0,0.800573
0,0,0.77552
0,0,0.768073
0,0,0.77375
0,0,0.817812
0,0,0.790781
0,0,0.770209
0,0,0.77875
0,0,0.822084
0,0,0.773281
0,0,0.774636
0,0,0.781615
0,0,0.770886
0,0,0.788073
0,0,0.772187
1,1,0.767969
0,0,0.773802
2,2,0.841198
0,0,0.780729
0,0,0.777552
0,0,0.774115
0,0,0.802708
0,0,0.778594
0,0,0.785521
0,0,0.775937
0,0,0.806302
0,0,0.771927
0,0,0.770885
0,0,0.836666
0,0,0.827552
1,1,0.775938
2,2,0.772969
0,0,0.772083
0,0,0.772292
0,0,0.796094
0,0,0.772969
0,0,0.770312
0,0,0.784948
0,0,0.811406
0,0,0.772083
0,0,0.77
0,0,0.771719
0,0,0.825104
0,0,0.779375
1,2,0.774792
0,0,0.773281
0,0,0.796042
0,0,0.770834
0,0,0.774375
0,0,0.771823
0,0,0.769635
0,0,0.816094
0,0,0.781875
0,0,0.77651
0,2,0.780469
0,0,0.81974
0,0,0.771406
0,0,0.779792
0,0,0.848385
0,0,0.808385
0,0,0.782083
0,0,0.772396
0,0,0.769739
0,0,0.786927
0,0,0.775573
0,0,0.776615
2,2,0.775729
0,0,0.772343
0,0,0.863698
0,0,0.772344
0,0,0.771563
3,3,0.77901
0,0,0.803802
0,0,0.774323
0,0,0.776406
0,0,0.776876
0,0,0.789271
0,0,0.778177
0,0,0.780781
0,0,0.770208
0,0,0.803854
0,0,0.774844
0,0,0.774219
0,0,0.784687
0,0,0.76802
0,0,0.808021
0,0,0.769636
0,0,0.782709
2,2,0.836667
0,0,0.83151
0,0,0.774583
0,0,0.768177
0,0,0.777552
0,0,0.832917
0,0,0.772813
0,0,0.776354
0,0,0.767864
0,0,0.806928
0,0,0.771823
0,0,0.768437
0,0,0.772604
0,0,0.806198
0,0,0.787761
0,0,0.770469
2,2,0.775886
0,0,0.775104
2,2,0.81677
0,0,0.775052
0,0,0.766354
0,0,0.7675
0,0,0.79901
2,2,0.769792
0,0,0.784062
2,2,0.772448
0,0,0.800625
0,0,0.771771
0,0,0.767813
0,0,0.770521
0,0,0.911094
0,0,0.780781
0,0,0.780573
0,0,0.77651
0,0,0.774896
0,0,0.796459
0,0,0.768907
0,0,0.775052
0,0,0.792552
0,0,0.797448
0,0,0.774323
0,0,0.783073
0,0,0.771302
0,0,0.815052
2,2,0.770469
0,0,0.773959
0,0,0.76625
0,0,0.802656
0,0,0.773958
0,0,0.771615
0,0,0.770781
0,0,0.785468
0,0,0.797917
0,0,0.770521
0,0,0.767187
0,0,0.77125
0,0,0.840104
1,0,0.769115
1,1,0.776614
0,0,0.828855
0,0,0.790782
0,0,0.778646
0,0,0.782396
0,0,0.775052
0,0,0.818489
0,0,0.786041
0,0,0.771719
0,0,0.780937
0,0,0.813854
0,0,0.810677
0,0,0.769063
0,0,0.772969
0,0,0.772552
0,0,0.801146
0,0,0.764428
0,0,0.774948
0,0,0.774219
0,0,0.821823
0,0,0.778334
0,0,0.793073
0,0,0.77849
0,0,0.84099
0,0,0.770834
0,0,0.78349
0,0,0.776823
0,0,0.805
0,0,0.771198
0,0,0.773282
0,0,0.771406
0,0,0.826928
0,0,0.819011
0,0,0.780365
0,0,0.780781
0,0,0.788333
0,0,0.80823
0,0,0.772812
0,0,0.765469
0,0,0.776719
0,0,0.803021
0,0,0.776511
0,0,0.772344
0,0,0.767917
0,0,0.793177
0,0,0.771719
0,0,0.775833
1,0,0.772188
1,1,0.776927
0,0,0.840573
0,0,0.784062
0,0,0.772344
0,0,0.784219
0,0,0.810157
0,0,0.767813
0,0,0.771511
2,2,0.769219
2,2,0.795626
0,0,0.776459
0,0,0.775469
0,0,0.769635
0,0,0.905521
0,0,0.775104
0,0,0.773698
0,0,0.779375
0,0,0.793229
0,0,0.772813
0,0,0.769948
0,0,0.782188
0,0,0.809375
2,2,0.781615
0,0,0.878594
0,0,0.811615
0,0,0.838959
0,0,0.77151
0,0,0.772656
0,0,0.768907
2,2,0.789531
0,0,0.776562
1,1,0.769271
0,0,0.768125
0,0,0.776771
0,0,0.803542
0,0,0.771563
0,0,0.779687
0,0,0.772552
0,0,0.824791
0,0,0.770625
0,0,0.772396
0,0,0.770052
0,0,0.803802
0,0,0.824688
0,0,0.772656
2,2,0.767864
0,0,0.809792
0,0,0.776667
0,0,0.773489
0,0,0.770313
0,0,0.77224
0,0,0.863698
0,0,0.783021
0,0,0.769375
2,2,0.773542
0,0,0.807083
0,0,0.772188
0,0,0.768125
0,0,0.771458
2,2,0.793959
0,0,0.769896
0,0,0.78224
0,0,0.787656
0,0,0.814531
0,0,0.770417
0,0,0.769896
0,0,0.772135
0,0,0.770626
2,2,0.815885
0,0,0.778855
0,0,0.773594
0,0,0.778021
0,0,0.800989
0,0,0.837969
0,0,0.786198
0,0,0.769011
0,0,0.834844
0,0,0.772552
1,0,0.772083
0,0,0.770521
0,0,0.799323
0,0,0.771198
0,0,0.772448
2,2,0.770885
0,0,0.768854
0,0,0.82875
0,0,0.769375
0,0,0.766666
0,0,0.774583
0,0,0.814895
0,0,0.770053
0,0,0.774531
0,0,0.769323
0,0,0.810156
0,0,0.780105
0,0,0.783593
1,1,0.772291
0,0,0.817188
0,0,0.771667
0,0,0.773802
0,0,0.791458
0,0,0.768177
0,0,0.895469
0,0,0.778698
0,0,0.780313
0,0,0.770625
0,0,0.798594
0,0,0.768958
0,0,0.775208
0,0,0.777135
0,0,0.801458
0,0,0.775364
0,0,0.765052
0,0,0.770677
0,0,0.855885
0,0,0.790989
0,0,0.774584
0,0,0.76875
0,0,0.961927
3,3,0.785261
0,0,0.769896
0,0,0.778542
0,0,0.82349
0,0,0.815781
0,0,0.775937
2,2,0.776823
0,0,0.775625
0,0,0.840156
0,0,0.792344
0,0,0.786771
0,0,0.779063
2,2,0.817396
0,0,0.825312
0,0,0.779376
0,0,0.779844
0,0,0.80349
0,0,0.779531
0,0,0.773698
0,0,0.78224
0,0,0.804219
0,0,0.772969
0,0,0.776667
1,0,0.775417
2,2,0.811667
2,2,0.775
2,2,0.772917
0,0,0.772032
0,0,0.780781
1,0,0.822865
0,0,0.777813
0,0,0.771563
0,0,0.775782
2,2,0.836406
0,0,0.772656
0,0,0.775469
0,0,0.769948
0,0,0.795313
0,0,0.783385
0,0,0.769739
0,0,0.774427
0,0,0.790052
0,0,0.76875
0,0,0.814583
0,0,0.782084
0,0,0.768958
0,0,0.811355
0,0,0.771042
0,0,0.771042
0,0,0.769844
0,0,0.790677
0,0,0.773906
0,0,0.77
0,0,0.769062
0,0,0.808125
0,0,0.765729
0,0,0.772969
2,2,0.765312
0,0,0.841875
0,0,0.77125
0,0,0.77526
0,0,0.772344
0,0,0.76849
0,0,0.804375
0,0,0.768854
0,0,0.773698
2,2,0.768854
0,0,0.796563
0,0,0.767604
0,0,0.770521
0,0,0.767761
0,0,0.805
0,0,0.771615
0,0,0.80323
0,0,0.766042
0,0,0.794896
0,0,0.772292
0,0,0.779844
0,0,0.779427
0,0,0.769271
0,0,0.803802
0,0,0.770573
0,0,0.769583
2,2,0.773282
0,0,0.836875
0,0,0.779167
2,2,0.777865
0,0,0.783906
0,0,0.7925
0,0,0.769271
0,0,0.769063
0,0,0.770781
0,0,0.810886
0,0,0.776563
0,0,0.768073
0,0,0.770833
0,0,0.767605
0,0,0.812031
0,0,0.771198
0,0,0.776614
0,0,0.775417
0,0,0.80573
0,0,0.773281
0,0,0.839687
0,0,0.770156
0,0,0.809063
0,0,0.77651
0,0,0.771823
0,0,0.771302
0,0,0.81724
0,0,0.772604
0,0,0.769062
0,0,0.774115
0,0,0.776875
0,0,0.795573
0,0,0.773594
0,0,0.780365
0,0,0.774166
0,0,0.803854
0,0,0.785209
1,0,0.773646
0,0,0.774583
0,0,0.809531
0,0,0.775729
0,0,0.772187
0,0,0.767813
0,0,0.816719
0,0,0.795573
0,0,0.784479
0,0,0.770417
0,0,0.780001
0,0,0.812292
0,0,0.766562
1,1,0.836146
0,0,0.767396
0,0,0.864844
0,0,0.775938
0,0,0.77875
0,0,0.773125
0,0,0.816875
0,0,0.787292
0,0,0.780937
0,0,0.76625
0,0,0.796042
0,0,0.78125
2,2,0.780834
0,0,0.773542
0,0,0.815261
0,0,0.768959
0,0,0.771198
0,0,0.777813
0,0,0.77776
0,0,0.8125
0,0,0.783646
0,0,0.778021
0,0,0.777344
3,3,0.818281
0,0,0.780209
0,0,0.778177
0,0,0.781406
0,0,0.866667
0,0,0.779323
0,0,0.830417
0,0,0.777396
0,0,0.79724
0,0,0.778854
0,0,0.771927
0,0,0.77401
0,0,0.781875
0,0,0.785521
2,2,0.770104
0,0,0.770729
0,0,0.774167
0,0,0.795261
0,0,0.782917
0,0,0.780469
2,2,0.771458
0,0,0.808334
0,0,0.772969
0,0,0.765573
0,0,0.767552
0,0,0.837553
0,0,0.773698
0,0,0.770938
2,2,0.771927
0,0,0.779531
0,0,0.833907
0,0,0.76875
0,0,0.769584
0,0,0.771719
2,2,0.790729
0,0,0.77276
2,2,0.813125
0,0,0.768646
0,0,0.793437
0,0,0.770208
0,0,0.766823
0,0,0.778646
1,1,0.804271
0,0,0.773073
0,0,0.77474
0,0,0.78026
0,0,0.776667
0,0,0.8
1,1,0.776823
0,0,0.773906
0,0,0.767917
0,0,0.79125
0,0,0.773073
0,0,0.773385
0,0,0.771927
0,0,0.840365
0,0,0.772552
0,0,0.772552
0,0,0.779271
0,0,0.799062
0,0,0.774427
0,0,0.776303
0,0,0.773281
0,0,0.772865
0,0,0.814636
0,0,0.783698
0,0,0.819063
0,0,0.788906
0,0,0.835053
0,0,0.774219
0,0,0.789271
0,0,0.775261
0,0,0.807656
0,0,0.777917
0,0,0.783855
0,0,0.776198
0,0,0.822552
0,0,0.778437
2,2,0.776406
0,0,0.78
0,0,0.844584
0,0,0.780938
0,0,0.779375
0,0,0.78901
2,2,0.785573
0,0,0.796927
0,0,0.769583
0,0,0.76651
0,0,0.769427
2,2,0.812657
0,0,0.770781
0,0,0.777136
0,0,0.768802
0,0,0.806615
0,0,0.77526
0,0,0.767396
0,0,0.817032
0,0,0.804427
0,0,0.77651
0,0,0.781302
0,0,0.781719
0,0,0.802396
0,0,0.77151
0,0,0.775781
0,0,0.779584
0,0,0.772135
2,2,0.839271
0,0,0.784479
0,0,0.775573
0,0,0.774376
0,0,0.811771
0,0,0.774219
0,0,0.772396
2,2,0.781303
0,0,0.789167
0,0,0.785469
0,0,0.7825
2,2,0.772813
0,0,0.820782
0,0,0.781771
0,0,0.782448
0,0,0.779739
0,0,0.774114
2,2,0.804428
0,0,0.773281
0,0,0.774636
0,0,0.819115
0,0,0.826875
0,0,0.775364
0,0,0.7775
0,0,0.772917
0,0,0.838073
0,0,0.773385
0,0,0.789948
0,0,0.78573
0,0,0.793333
0,0,0.774271
0,0,0.777448
0,0,0.775833
0,0,0.767656
0,0,0.796563
0,0,0.783178
0,0,0.773073
0,0,0.772552
0,0,0.827917
0,0,0.784583
0,0,0.779063
0,0,0.773906
0,0,0.804063
0,0,0.772136
0,0,0.783125
0,0,0.774688
0,0,0.810833
0,0,0.772448
0,0,0.772448
0,0,0.83125
0,0,0.841666
0,0,0.774844
0,0,0.775052
0,0,0.781354
0,0,0.768177
0,0,0.805573
0,0,0.785208
0,0,0.786771
0,0,0.795105
0,0,0.807083
0,0,0.78224
0,0,0.76974
0,0,0.774739
0,0,0.814479
0,0,0.777188
0,0,0.771406
0,0,0.774376
0,0,0.812032
0,0,0.771042
0,0,0.792813
0,0,0.780104
0,0,0.770521
0,0,0.79625
0,0,0.776979
0,0,0.779115
0,0,0.768281
0,0,0.846979
0,0,0.770938
2,2,0.782396
0,0,0.831094
0,0,0.803073
0,0,0.770885
0,0,0.773333
0,0,0.774688
0,0,0.810156
1,0,0.77276
0,0,0.768125
0,0,0.76526
0,0,0.79349
0,0,0.778594
0,0,0.774844
0,0,0.766511
0,0,0.776302
0,0,0.798593
0,0,0.772552
1,0,0.763438
0,0,0.76724
0,0,0.80026
0,0,0.772553
1,1,0.788334
0,0,0.774479
0,0,0.812344
0,0,0.768386
0,0,0.773281
0,0,0.769219
0,0,0.768333
0,0,0.803802
0,0,0.779115
0,0,0.770938
0,0,0.840157
0,0,0.839636
0,0,0.780105
0,0,0.775208
2,2,0.781146
0,0,0.813594
2,2,0.775885
0,0,0.773541
0,0,0.777865
0,0,0.819427
0,0,0.769271
0,0,0.768333
0,0,0.767135
0,0,0.795677
0,0,0.784219
0,0,0.766667
2,2,0.773958
0,0,0.773802
0,0,0.854323
0,0,0.773281
0,0,0.768178
0,0,0.771093
0,0,0.815937
0,0,0.777864
0,0,0.774896
0,0,0.768177
2,2,0.791355
2,2,0.767187
0,0,0.781094
0,0,0.767761
0,0,0.862656
0,0,0.773542
0,0,0.768646
1,0,0.765573
0,0,0.767292
0,0,0.801667
0,0,0.768541
3,3,0.767083
0,0,0.765834
0,0,0.813646
2,2,0.777084
0,0,0.779844
0,0,0.790782
0,0,0.832292
0,0,0.775157
0,0,0.784427
0,0,0.794532
0,0,0.811823
0,0,0.776302
0,0,0.775625
0,0,0.78276
0,0,0.772448
0,0,0.794271
0,0,0.766667
0,0,0.769687
2,2,0.776094
0,0,0.829479
0,0,0.780937
0,0,0.766876
0,0,0.764844
2,2,0.86599
1,1,0.76698
0,0,0.772344
0,0,0.767084
0,0,0.807136
0,0,0.773646
0,0,0.766355
0,0,0.766927
0,0,0.768541
0,0,0.83823
2,2,0.774115
0,0,0.777344
0,0,0.773385
0,0,0.809844
2,2,0.77724
0,0,0.781094
0,0,0.773386
0,0,0.796355
1,1,0.772187
0,0,0.768438
0,0,0.767084
0,0,0.81
0,0,0.771771
0,0,0.776303
2,2,0.769271
0,0,0.769063
0,0,0.824635
1,0,0.770416
0,0,0.771615
0,0,0.769427
2,2,0.806823
0,0,0.76948
0,0,0.76901
0,0,0.775885
0,0,0.856562
0,0,0.770729
0,0,0.774011
0,0,0.770156
0,0,0.795729
0,0,0.767916
0,0,0.775937
0,0,0.779167
0,0,0.808177
0,0,0.775
0,0,0.767812
0,0,0.767032
0,0,0.786823
0,0,0.843646
0,0,0.767292
0,0,0.767031
2,2,0.779115
0,0,0.796667
0,0,0.768334
2,2,0.77125
0,0,0.765886
0,0,0.810001
0,0,0.767552
0,0,0.769688
0,0,0.767761
0,0,0.900209
0,0,0.782032
0,0,0.767604
0,0,0.767656
0,0,0.767657
0,0,0.797552
2,2,0.776667
0,0,0.773334
2,2,0.769739
0,2,0.820469
0,0,0.774635
0,0,0.771928
0,0,0.775781
0,0,0.803802
0,0,0.779271
0,0,0.781771
0,0,0.77474
0,0,0.795677
0,0,0.774323
0,0,0.769688
0,0,0.778021
0,0,0.771406
0,0,0.800364
0,0,0.787604
0,0,0.785729
0,0,0.783906
0,0,0.849062
0,0,0.781614
0,0,0.772344
0,0,0.774271
0,0,0.849584
2,2,0.770781
0,0,0.773594
0,0,0.782865
0,0,0.796042
0,0,0.770468
0,0,0.77099
3,3,0.766459
0,0,0.77651
0,0,0.811354
3,0,0.775052
0,0,0.769271
0,0,0.768542
0,0,0.805052
0,0,0.781562
0,0,0.770625
0,0,0.776875
0,0,0.813906
0,0,0.771094
0,0,0.774635
0,0,0.774376
0,0,0.837813
0,0,0.781302
0,0,0.773855
2,2,0.772292
0,0,0.799896
0,0,0.774011
0,0,0.775156
1,0,0.774479
0,0,0.788802
0,0,0.846666
0,0,0.770834
1,1,0.776823
0,0,0.772865
0,0,0.810625
0,0,0.77552
0,0,0.787187
0,0,0.774583
1,1,0.805625
0,0,0.775625
0,0,0.772969
0,0,0.782135
0,0,0.82224
2,2,0.80776
0,0,0.777031
0,0,0.77474
0,0,0.78224
0,0,0.84224
0,0,0.776979
0,0,0.788125
0,0,0.774428
0,0,0.807813
0,0,0.780313
0,0,0.77276
0,0,0.775937
0,0,0.80099
0,0,0.774583
2,2,0.781094
2,2,0.771406
0,0,0.817708
0,0,0.807709
0,0,0.770312
0,0,0.77401
0,0,0.808073
0,0,0.771719
0,0,0.767344
0,0,0.770678
0,0,0.77125
0,0,0.801354
0,0,0.774583
0,0,0.774115
0,0,0.769948
0,0,0.832917
0,0,0.768021
0,0,0.769896
0,0,0.782448
2,2,0.798021
1,1,0.773125
0,0,0.767916
0,0,0.768281
0,0,0.778906
0,0,0.826355
0,0,0.773386
0,0,0.777864
2,0,0.782083
0,0,0.812656
3,3,0.771563
0,0,0.771667
0,2,0.77349
0,0,0.789271
0,0,0.822917
0,0,0.796979
0,0,0.790052
0,0,0.845521
2,0,0.769114
0,0,0.782552
0,0,0.775208
0,0,0.851042
0,0,0.774167
0,0,0.772448
0,0,0.77224
0,0,0.772812
0,0,0.798854
0,0,0.772448
0,0,0.777344
0,0,0.770938
2,2,0.811406
0,0,0.774687
0,0,0.775573
0,0,0.775625
0,0,0.826615
0,0,0.78323
1,1,0.772604
0,0,0.772813
0,0,0.796615
2,2,0.779531
0,0,0.78198
0,0,0.77349
0,0,0.781979
0,0,0.841719
0,0,0.781511
0,0,0.778073
0,0,0.771354
0,0,0.853229
0,0,0.781927
0,0,0.778178
0,0,0.772657
2,2,0.80599
0,0,0.768021
0,0,0.76526
0,0,0.77224
2,2,0.791354
0,0,0.776458
2,2,0.772135
0,0,0.777292
0,0,0.809948
0,0,0.773021
0,0,0.772708
0,0,0.776562
0,0,0.778594
0,0,0.813646
0,0,0.7775
0,0,0.76974
0,0,0.769844
0,0,0.830729
0,0,0.784062
0,0,0.777604
0,0,0.775468
0,0,0.824062
2,2,0.809062
0,0,0.768907
0,0,0.770104
0,0,0.795416
0,0,0.783698
0,0,0.772084
0,0,0.770885
0,0,0.769323
0,0,0.834427
0,0,0.776198
0,0,0.779271
1,1,0.772188
0,0,0.815573
0,0,0.773855
2,2,0.775364
0,0,0.774583
0,0,0.805157
0,0,0.787657
0,0,0.783385
0,0,0.778646
0,0,0.819948
0,0,0.774219
0,0,0.769843
0,0,0.769948
0,0,0.842084
2,2,0.771875
0,0,0.768594
0,0,0.768906
0,0,0.770312
0,0,0.802031
0,0,0.823438
0,0,0.768438
0,0,0.774427
2,2,0.810417
0,0,0.770573
2,2,0.766927
0,0,0.7725
0,0,0.807708
0,0,0.795833
0,0,0.776146
0,0,0.7675
0,0,0.828021
0,0,0.770886
0,0,0.772812
0,0,0.780417
0,0,0.773333
0,0,0.797344
0,0,0.772969
2,2,0.774115
0,0,0.781094
0,0,0.85276
0,0,0.778073
0,0,0.784479
0,0,0.776303
0,0,0.800781
0,0,0.772344
0,0,0.775625
0,0,0.774479
0,0,0.811458
0,0,0.767917
0,0,0.815938
2,2,0.768177
0,0,0.766354
0,0,0.817083
0,0,0.769896
0,0,0.765104
0,0,0.769948
0,0,0.808646
0,0,0.773594
0,0,0.778802
0,0,0.773125
0,0,0.826719
0,0,0.769375
0,0,0.77276
0,0,0.766719
0,0,0.849323
1,1,0.776406
0,0,0.774479
1,1,0.781042
0,0,0.77276
0,0,0.79552
0,0,0.786198
0,0,0.774011
0,0,0.775261
0,0,0.816146
0,0,0.772188
0,0,0.785156
0,0,0.793073
0,0,0.840208
0,0,0.78802
0,0,0.800729
0,0,0.778073
0,0,0.798438
0,0,0.765208
2,2,0.769635
0,0,0.771302
0,0,0.814792
0,0,0.765417
0,0,0.773906
0,0,0.76974
3,3,0.775521
0,0,0.851407
0,0,0.783281
2,2,0.777291
0,0,0.781302
0,0,0.818958
2,2,0.775313
0,0,0.772292
0,0,0.779219
0,0,0.795365
0,0,0.77724
0,0,0.772396
0,0,0.777864
0,0,0.803177
0,0,0.768437
0,0,0.772396
0,0,0.767865
0,0,0.769062
1,1,0.802709
0,0,0.81625
0,0,0.768229
0,0,0.772136
2,2,0.81599
0,0,0.767708
0,0,0.766718
0,0,0.7775
0,0,0.873646
0,0,0.846406
0,0,0.782084
0,0,0.77375
1,1,0.812813
0,0,0.770886
0,0,0.775105
0,0,0.768333
0,0,0.816354
0,0,0.775104
0,0,0.775208
1,1,0.77151
0,0,0.777396
0,0,0.841406
0,0,0.785625
0,0,0.774844
0,0,0.771198
0,0,0.798437
0,0,0.779219
0,0,0.806094
0,0,0.835781
0,0,0.886042
1,1,0.831875
0,0,0.829791
1,1,0.768386
0,0,0.867709
0,0,0.775156
0,0,0.77625
0,0,0.771719
0,0,0.794427
0,0,0.771615
0,0,0.790781
0,0,0.864531
0,0,0.846719
0,0,0.785053
0,0,0.784375
2,2,0.821406
0,0,0.847031
0,0,0.783645
2,2,0.774218
0,0,0.771198
0,0,0.77849
0,0,0.8125
0,0,0.76875
0,0,0.769011
0,0,0.768489
0,0,0.793854
0,0,0.772187
0,0,0.777553
0,0,0.770938
0,0,0.844323
0,0,0.776093
0,0,0.767708
0,0,0.817292
0,0,0.800521
0,0,0.780885
0,0,0.792865
0,0,0.78651
0,0,0.777969
0,0,0.818073
0,0,0.776927
0,0,0.783282
0,0,0.770313
0,0,0.817188
2,2,0.775261
0,0,0.773854
0,0,0.772344
0,0,0.800573
0,0,0.78198
2,2,0.771354
0,0,0.775573
0,0,0.816614
0,0,0.774843
0,0,0.778698
0,0,0.772969
0,0,0.831198
1,1,0.778177
0,0,0.777188
2,2,0.77349
2,2,0.776667
1,1,0.802604
0,0,0.777813
0,0,0.779479
0,0,0.836146
0,0,0.816094
0,0,0.786979
0,0,0.778698
0,0,0.76526
0,0,0.804531
0,0,0.768906
0,0,0.768594
0,0,0.775937
0,0,0.78599
0,0,0.766407
0,0,0.775781
0,0,0.774687
0,0,0.784896
0,0,0.803646
1,1,0.775989
0,0,0.859375
0,0,0.885729
0,0,0.783333
0,0,0.78901
0,0,0.787969
0,0,0.829584
0,0,0.783542
0,0,0.78724
0,0,0.778073
0,0,0.776458
0,0,0.927656
3,2,0.768021
0,0,0.77198
0,0,0.774427
2,2,0.961615
0,0,0.775156
0,0,0.777917
0,0,0.771302
0,0,0.809843
1,1,0.807135
0,0,0.790781
0,0,0.788906
2,2,0.79125
0,0,0.778698
0,0,0.783594
0,0,0.782761
0,0,0.835625
0,0,0.768906
0,0,0.770365
0,0,0.769115
0,0,0.800261
0,0,0.769115
0,0,0.784531
0,0,0.773073
1,1,0.788073
0,0,0.786354
0,0,0.76724
0,0,0.769792
0,0,0.779271
0,0,0.821614
0,0,0.776198
0,0,0.773073
0,0,0.772084
0,0,0.791562
0,0,0.832708
0,0,0.779948
0,0,0.764531
0,0,0.865781
2,2,0.766459
0,0,0.764063
0,0,0.765625
3,3,0.773386
0,0,0.837031
1,1,0.790625
2,2,0.765625
0,0,0.774323
0,0,0.796406
0,0,0.780001
0,0,0.787292
0,0,0.781719
0,0,0.799375
0,0,0.764791
0,0,0.771406
0,0,0.767448
0,0,0.818854
0,0,0.783073
0,0,0.767917
0,0,0.766979
0,0,0.767188
0,0,0.817657
0,0,0.769375
0,0,0.778334
0,0,0.781146
0,0,0.877188
0,0,0.778229
0,0,0.769844
0,0,0.774114
0,0,0.834843
0,0,0.789427
0,0,0.77724
0,0,0.774375
0,0,0.804739
0,0,0.771979
0,0,0.76875
0,0,0.769896
0,0,0.79474
0,0,0.769427
1,1,0.786146
0,0,0.769271
0,0,0.769271
0,0,0.81026
0,0,0.776042
0,0,0.770261
0,0,0.769219
0,0,0.792656
0,0,0.767708
0,0,0.76875
0,0,0.766459
0,0,0.823385
0,0,0.771563
0,0,0.78
0,0,0.793803
0,0,0.79151
0,0,0.894531
2,2,0.7925
0,0,0.771719
0,0,0.766771
0,0,0.808542
0,0,0.770833
0,0,0.785416
0,0,0.778958
2,2,0.811511
0,3,0.771354
0,0,0.765
0,0,0.769375
1,1,0.806562
0,0,0.77651
0,0,0.76698
0,0,0.771718
0,0,0.804219
0,0,0.763073
0,0,0.762917
0,0,0.772084
0,0,0.773333
0,0,0.794062
0,0,0.776355
0,0,0.781771
0,0,0.766094
1,0,0.830573
0,0,0.769479
0,0,0.775312
0,0,0.7675
0,0,0.8
0,0,0.811667
0,0,0.763125
2,2,0.77625
0,0,0.793437
2,2,0.770052
0,0,0.771302
1,1,0.774844
0,0,0.779062
0,0,0.819896
0,0,0.769688
0,0,0.778021
0,0,0.778646
0,0,0.803437
0,0,0.790989
0,0,0.78224
0,0,0.783854
0,0,0.789427
0,0,0.779896
0,0,0.781771
2,2,0.781146
0,0,0.859636
2,2,0.770782
0,0,0.783281
0,0,0.785729
0,0,0.78474
0,0,0.787761
0,0,0.774011
0,0,0.771303
0,0,0.765677
0,0,0.785104
0,0,0.829219
0,0,0.766718
0,0,0.771302
0,0,0.809844
0,0,0.773958
0,0,0.764531
0,0,0.768334
0,0,0.802552
0,0,0.767136
0,0,0.767344
2,2,0.769271
0,0,0.767083
0,0,0.802917
0,0,0.77875
0,0,0.784688
0,0,0.774271
2,2,0.83099
0,0,0.780729
0,0,0.764011
0,0,0.784688
0,0,0.802083
0,0,0.771354
0,0,0.770938
0,0,0.766771
2,2,0.797448
0,0,0.767865
0,0,0.76724
0,0,0.765313
0,0,0.762865
0,0,0.820208
0,0,0.818334
0,0,0.780989
0,0,0.777187
0,0,0.811875
0,0,0.768646
0,0,0.78177
0,0,0.783229
0,0,0.814896
0,0,0.772708
0,0,0.768906
0,0,0.766407
0,0,0.824792
0,0,0.773907
0,0,0.781823
0,0,0.768125
0,0,0.777657
0,0,0.800052
0,0,0.767083
0,0,0.769635
0,0,0.763803
0,0,0.799896
0,0,0.785833
0,0,0.76974
0,0,0.763594
1,1,0.834896
0,0,0.773334
2,2,0.765885
0,0,0.773437
0,0,0.804739
0,0,0.832292
0,0,0.771041
0,0,0.775937
0,0,0.771615
2,2,0.81776
0,0,0.776198
0,0,0.780104
0,0,0.766719
0,0,0.854219
0,0,0.781979
0,0,0.765365
2,2,0.77125
0,0,0.796198
0,0,0.789583
0,0,0.772657
0,0,0.772136
0,0,0.813281
0,0,0.764427
0,0,0.771302
0,0,0.776614
0,0,0.796823
0,0,0.765052
0,0,0.765573
0,0,0.762187
0,0,0.784219
0,0,0.800938
0,0,0.795156
0,0,0.767657
0,0,0.78323
0,0,0.802552
2,2,0.831927
0,0,0.769479
1,0,0.768073
0,0,0.847969
0,0,0.76625
0,0,0.765313
0,0,0.763698
2,2,0.815312
1,1,0.786041
3,2,0.780833
0,0,0.771614
0,0,0.768021
0,0,0.795886
0,0,0.767656
0,0,0.764948
0,0,0.768385
0,0,0.809114
0,0,0.773698
0,0,0.766459
0,0,0.767344
0,0,0.796563
2,2,0.766719
0,0,0.765677
0,0,0.778802
0,0,0.772709
0,0,0.782604
0,0,0.778541
0,0,0.765417
0,0,0.771667
0,0,0.831563
2,2,0.824219
0,0,0.777553
0,0,0.767761
1,1,0.795885
0,0,0.775313
0,0,0.768698
2,2,0.780157
0,0,0.807708
0,0,0.771407
0,0,0.77073
0,0,0.770729
2,2,0.766406
0,0,0.795
0,0,0.772864
0,0,0.773281
0,0,0.764896
1,1,0.799792
0,0,0.768542
1,1,0.768646
0,0,0.76526
0,0,0.807292
0,0,0.786042
0,0,0.777135
0,0,0.770625
0,0,0.839636
0,0,0.770313
0,0,0.776875
0,0,0.773855
0,0,0.782344
0,0,0.801302
1,1,0.823698
0,0,0.781667
0,0,0.775261
0,0,0.801198
0,0,0.776615
1,1,0.780417
0,0,0.784636
0,0,0.829687
1,0,0.775625
1,1,0.776563
0,0,0.774479
0,0,0.813073
2,2,0.774896
0,0,0.774636
0,0,0.779271
0,0,0.798125
0,0,0.778438
0,0,0.77125
0,0,0.778698
0,0,0.776354
0,0,0.852187
0,0,0.777291
0,0,0.771042
0,0,0.776511
0,0,0.789688
2,2,0.771459
0,0,0.766094
0,0,0.771406
2,2,0.79573
0,0,0.766094
0,0,0.805833
0,0,0.766146
0,0,0.820053
0,0,0.798021
0,0,0.766875
0,0,0.77901
0,0,0.765625
0,0,0.797865
0,0,0.765782
0,0,0.776146
0,0,0.780886
3,2,0.834792
0,0,0.766771
0,0,0.769375
0,0,0.767292
0,0,0.827135
0,0,0.783646
0,0,0.762239
0,0,0.762344
0,0,0.782813
0,0,0.76474
0,0,0.767135
0,0,0.772188
0,0,0.780104
0,0,0.798542
0,0,0.765573
0,0,0.763906
0,0,0.762657
0,0,0.821875
0,0,0.808125
0,0,0.772657
1,0,0.788177
0,0,0.828333
0,0,0.77625
2,2,0.772396
0,0,0.775468
0,0,0.810989
2,2,0.790625
0,0,0.772917
0,0,0.779843
0,0,0.773125
0,0,0.839531
0,0,0.769323
1,1,0.775781
0,0,0.776146
0,0,0.803906
0,0,0.769843
0,0,0.772448
2,2,0.771563
0,0,0.801615
2,2,0.78375
2,2,0.782396
0,0,0.776041
2,2,0.830989
0,0,0.774011
0,0,0.770573
0,0,0.777709
0,0,0.778802
0,0,0.799062
0,0,0.837812
0,0,0.775052
0,0,0.781094
2,2,0.809687
0,0,0.778177
0,0,0.774062
0,0,0.777969
0,0,0.84625
0,0,0.774896
0,0,0.772448
0,0,0.781562
0,0,0.795885
0,0,0.770677
0,0,0.768645
0,0,0.767188
0,0,0.800052
0,0,0.770156
0,0,0.767605
0,0,0.769792
1,1,0.765156
0,0,0.811979
0,0,0.765
0,0,0.780469
0,0,0.77224
0,0,0.800261
0,0,0.771145
0,0,0.765417
0,0,0.764636
0,0,0.797396
0,0,0.768073
0,0,0.832083
0,0,0.775417
0,0,0.834011
0,0,0.780261
0,0,0.765053
0,0,0.765885
0,0,0.776094
2,2,0.794115
0,0,0.780469
0,0,0.773386
2,2,0.777917
0,0,0.818906
0,0,0.790678
0,0,0.778698
2,2,0.770052
0,0,0.814895
0,0,0.76625
0,0,0.767084
0,0,0.765312
0,0,0.800677
0,0,0.766458
0,0,0.773803
0,0,0.780573
0,0,0.766719
0,0,0.798489
0,0,0.771302
0,0,0.76599
0,0,0.765052
0,0,0.841145
0,0,0.772604
0,0,0.831667
0,0,0.766302
0,0,0.803698
0,0,0.764636
0,0,0.765625
0,0,0.766406
0,0,0.808437
2,2,0.767448
0,0,0.771562
0,0,0.765157
0,0,0.766354
0,0,0.811771
0,0,0.765417
0,0,0.770521
0,0,0.765208
0,0,0.791875
2,2,0.767604
0,0,0.767448
0,0,0.768646
0,0,0.811406
0,0,0.777344
0,0,0.772813
0,0,0.768698
0,0,0.772135
0,0,0.817032
0,0,0.767656
0,0,0.767448
0,0,0.763698
2,2,0.804011
0,0,0.774792
1,0,0.813281
0,0,0.766198
1,1,0.811042
0,0,0.772292
0,0,0.77849
0,0,0.766563
0,0,0.808125
0,0,0.77599
0,0,0.770052
0,0,0.780209
0,0,0.773229
0,0,0.804063
0,0,0.776355
0,0,0.776094
0,0,0.773542
0,0,0.806511
0,0,0.774167
0,0,0.774323
0,0,0.775886
0,0,0.841354
0,0,0.774792
0,0,0.763958
0,0,0.769739
0,0,0.805677
0,0,0.770677
2,2,0.762813
2,2,0.773594
0,0,0.772031
0,0,0.78849
2,2,0.762865
0,0,0.814896
0,0,0.776614
0,0,0.812395
0,0,0.771042
0,0,0.763021
0,0,0.76323
0,0,0.792812
1,0,0.77474
0,0,0.763229
2,2,0.76375
0,0,0.788334
0,0,0.771511
0,0,0.765417
1,1,0.778385
0,0,0.778021
0,0,0.863646
0,0,0.762344
0,0,0.780469
0,0,0.801875
0,0,0.802083
1,1,0.778698
0,0,0.76776
0,0,0.764376
0,0,0.794114
0,0,0.766094
0,0,0.771198
0,0,0.782604
0,0,0.815
0,0,0.778959
0,0,0.848281
2,2,0.762968
0,0,0.772916
0,0,0.800625
0,0,0.767709
0,0,0.764948
0,0,0.77099
0,0,0.80974
0,0,0.765208
0,0,0.762865
0,0,0.766042
0,0,0.832813
0,0,0.772865
0,0,0.771354
0,0,0.773541
0,0,0.816302
0,0,0.782292
0,0,0.785886
0,0,0.775
0,0,0.779584
2,2,0.797552
0,0,0.774687
2,2,0.767864
0,0,0.771198
0,0,0.809323
2,2,0.771823
0,0,0.7775
0,0,0.76875
0,0,0.804843
0,0,0.774428
0,0,0.816042
0,0,0.789323
0,0,0.80474
0,0,0.783177
0,0,0.77224
0,0,0.76875
0,0,0.779062
0,0,0.833906
0,0,0.773125
0,0,0.782396
0,0,0.784323
2,2,0.808646
0,0,0.775417
0,0,0.769427
0,0,0.775053
0,0,0.834375
0,0,0.781355
0,0,0.77651
0,0,0.784792
0,0,0.822031
0,0,0.770312
0,0,0.78224
0,0,0.771198
0,0,0.795104
0,0,0.775105
1,1,0.775625
0,0,0.770937
0,0,0.767032
0,0,0.819896
1,1,0.773437
0,0,0.836042
0,0,0.767761
0,0,0.844011
2,0,0.768802
0,0,0.771667
0,0,0.771562
0,0,0.795833
0,0,0.77177
0,0,0.773229
0,0,0.773542
0,0,0.809167
0,0,0.771094
0,0,0.772761
0,0,0.772968
0,0,0.784218
0,0,0.803542
0,0,0.771302
0,0,0.780573
2,2,0.773958
1,1,0.807031
0,0,0.774323
0,0,0.772239
0,0,0.771979
0,0,0.79099
0,0,0.773489
0,0,0.777135
0,0,0.778802
0,0,0.843333
0,0,0.784791
2,2,0.781198
0,0,0.819323
1,1,0.808333
0,0,0.77474
0,0,0.769219
0,0,0.772656
0,0,0.780261
0,0,0.799427
0,0,0.77901
0,0,0.775521
0,0,0.769792
0,0,0.81625
0,0,0.777813
0,0,0.777031
0,0,0.782084
0,0,0.798073
0,0,0.769948
0,0,0.777969
0,0,0.775105
0,0,0.798594
0,0,0.778854
0,0,0.769011
0,0,0.770781
0,0,0.76776
0,0,0.835938
2,2,0.77276
0,0,0.779218
0,0,0.772083
2,2,0.792708
0,0,0.774011
0,0,0.781927
0,0,0.813698
0,0,0.802917
0,0,0.778125
0,0,0.772917
0,0,0.773803
0,0,0.816875
0,0,0.765
0,0,0.774687
2,2,0.774323
2,2,0.772604
0,0,0.80401
1,0,0.773073
0,0,0.771875
0,0,0.778334
0,0,0.822292
0,0,0.806927
0,0,0.772448
0,0,0.776667
0,0,0.843698
0,0,0.769271
0,0,0.788958
1,1,0.774114
0,0,0.810104
0,0,0.774114
0,0,0.772708
0,0,0.776667
0,0,0.774844
0,0,0.806615
0,0,0.787605
0,0,0.837969
0,0,0.779063
0,0,0.827812
0,0,0.775781
0,0,0.776771
0,0,0.780677
0,0,0.819375
0,0,0.782604
0,0,0.771562
0,0,0.776042
0,0,0.812135
0,0,0.771718
1,1,0.775573
0,0,0.784479
0,0,0.83724
0,0,0.779532
0,0,0.771615
0,0,0.773646
0,0,0.776042
0,0,0.811563
0,0,0.776458
2,2,0.776458
0,0,0.773073
0,0,0.801042
0,0,0.774531
0,0,0.768385
0,0,0.770782
0,2,0.824375
0,0,0.773385
0,0,0.770573
0,0,0.807864
0,0,0.795469
0,0,0.783959
0,0,0.775469
0,0,0.777761
0,0,0.772135
0,0,0.822865
0,0,0.773802
0,0,0.77073
0,0,0.769896
0,0,0.839375
0,0,0.772864
1,0,0.784531
2,2,1.67625
0,0,1.090625
0,0,0.977187
0,0,1.02474
0,0,0.946615
0,0,0.931459
1,1,0.938177
2,2,1.101458
0,0,0.967604
0,0,0.985521
0,0,1.095677
0,0,0.970208
0,0,0.971562
0,0,0.999166
0,0,0.930781
0,0,0.916823
0,0,0.937865
0,0,1.020938
0,0,0.924948
0,0,0.963333
0,0,0.972605
1,0,0.924636
0,0,0.918855
0,0,0.923437
0,0,0.975104
0,0,0.921563
0,0,0.918073
0,0,0.981459
0,0,0.928907
0,0,0.914271
0,0,0.974479
0,0,0.9675
0,0,0.968542
0,0,0.912084
2,2,0.949323
0,0,0.942761
0,0,0.918646
0,0,0.932604
0,0,1.046667
0,0,0.956146
1,0,0.917552
0,0,0.957292
0,0,0.963541
0,0,0.932187
0,0,0.911198
0,0,0.981719
0,0,0.920834
2,2,0.928334
0,0,0.998958
0,0,0.921979
0,0,0.914427
0,0,0.930729
2,2,0.979375
0,0,0.936407
0,0,0.93
0,0,1.030678
0,0,0.9125
0,0,0.921094
0,0,0.921406
2,2,1.01724
0,0,0.978489
1,1,0.922396
0,0,0.991927
0,0,0.927031
3,1,0.911719
2,2,0.922344
0,0,0.977291
0,0,0.921146
2,2,0.934427
0,0,0.974479
0,0,0.924063
0,0,0.922657
2,3,0.913646
0,0,0.984375
0,0,0.940052
0,0,0.919584
0,0,0.908334
0,0,0.955
0,0,0.933959
0,0,0.929739
0,0,1.020052
0,0,0.920468
0,0,0.94651
0,0,0.915
0,0,0.976562
1,0,0.922135
3,3,0.929688
0,0,0.964166
0,0,0.917031
1,1,0.916667
0,0,1.006302
2,2,1.037188
2,2,0.937865
0,0,0.923021
0,0,0.9775
0,0,0.919896
0,0,0.917605
0,0,0.943178
0,0,1.011511
0,0,0.918854
2,2,0.940416
0,0,1.011823
0,0,0.931771
0,0,0.925313
0,0,0.915781
0,0,0.959479
0,0,0.929427
0,0,0.916198
0,0,0.981094
0,0,0.909271
0,0,0.951354
0,0,0.913542
0,0,0.968803
0,0,0.937292
2,2,0.916979
0,0,0.980313
0,0,0.914584
0,0,0.922552
0,0,0.922187
2,2,0.954219
0,0,1.00375
0,0,0.926354
0,0,1.029323
2,3,0.943698
0,0,0.911927
0,0,0.91651
0,0,0.994011
0,0,0.917917
0,0,0.912709
0,0,0.968542
0,0,0.950261
0,0,0.908958
0,0,0.918333
0,0,1.015989
0,0,0.91474
0,0,0.909791
0,0,0.966459
0,0,0.928125
2,2,0.927083
0,0,0.90776
0,0,0.974375
0,0,0.921875
0,0,0.918698
0,0,1.025364
0,0,0.921563
0,0,0.918177
0,0,0.921198
0,0,0.947917
2,2,0.927917
0,0,0.933698
3,0,1.010365
0,0,0.922813
0,0,0.921094
0,0,0.931719
0,0,0.989428
0,0,0.923282
0,0,0.919844
0,0,0.958907
0,0,0.925469
0,0,0.928542
0,0,0.925104
0,0,0.988073
0,0,0.921927
0,0,0.921042
0,0,1.088959
0,0,0.936459
0,0,0.948334
0,0,0.925313
0,0,0.997969
0,0,0.926302
0,0,0.926771
0,0,0.965
0,0,0.929687
0,0,0.928125
0,0,0.919323
0,0,1.002448
0,0,0.929583
0,0,0.938334
0,0,0.920313
0,0,1.025573
0,0,0.956094
0,0,0.915833
0,0,0.992448
0,0,0.922448
2,2,0.934063
0,0,1.036094
0,0,0.920677
0,0,0.939896
0,0,0.926563
0,0,0.965677
0,0,0.93125
0,0,0.908906
0,0,0.928542
2,2,0.940573
0,0,0.93
0,0,0.925677
0,0,1.008907
0,0,0.917448
0,0,0.916615
0,0,0.909479
0,0,0.980417
1,1,0.913437
0,0,0.915156
0,0,0.985
0,0,0.921146
0,0,0.939063
0,0,0.9125
0,0,1.01375
0,0,0.925573
0,0,1.006562
0,0,0.984896
1,1,0.940938
0,0,0.932136
0,0,0.928334
0,0,0.986823
0,0,0.921459
0,0,0.926667
0,0,0.990156
0,0,0.911511
0,0,0.925104
0,0,0.95198
0,0,0.981823
0,0,0.924844
0,0,0.937657
0,0,0.960885
1,1,0.9125
0,0,0.92948
0,0,0.927916
1,1,1.075521
0,0,0.918542
0,1,0.921614
0,0,0.973646
0,0,0.92
0,0,0.918906
0,0,0.916146
0,0,0.960365
0,0,0.917292
0,0,0.921615
0,0,0.973594
0,0,1.00099
0,0,0.933489
2,2,0.914531
0,0,0.963489
0,0,0.945521
0,0,0.932916
0,0,0.962031
0,0,0.924323
0,0,0.942187
0,0,0.915729
2,2,1.006771
0,0,0.940156
0,0,0.922761
2,2,0.952969
0,0,0.922396
0,0,0.920678
0,0,0.919688
0,0,0.955729
0,0,0.940937
0,0,0.995469
0,0,1.062969
0,0,0.917917
2,2,0.911302
0,0,0.983593
0,0,0.938907
0,0,0.922708
0,0,0.912448
0,0,0.985469
0,0,0.91
0,0,1.001927
0,0,1.075782
0,0,0.920938
0,0,0.918385
0,0,0.918333
0,0,0.988334
0,0,0.958958
0,0,0.923438
0,0,1.003178
0,0,0.920156
0,0,0.927291
0,0,0.941614
0,0,1.010469
0,0,0.927813
0,0,0.939584
0,0,0.977448
0,0,0.920885
0,0,0.925677
0,0,0.925521
0,0,0.965052
2,2,0.923021
2,2,0.925364
0,0,1.046823
0,0,0.92375
0,0,0.918178
0,0,0.938542
0,0,0.992448
0,0,0.94599
0,0,0.955729
0,0,0.981459
0,0,0.929844
0,0,1.01349
0,0,0.923959
2,2,1.02026
0,0,0.923907
0,0,0.927396
0,0,0.962188
0,0,0.949531
0,0,0.956406
2,2,0.916563
0,0,0.980782
0,0,0.918438
0,0,0.918438
0,0,1.009792
0,0,0.91474
0,0,0.935053
0,0,0.912605
0,0,0.976718
0,0,0.965886
0,0,0.92698
0,0,0.958489
0,0,0.938073
0,0,0.911354
0,0,0.958125
0,0,0.99125
0,0,0.915365
0,0,0.916145
0,0,0.977448
0,0,0.928334
0,0,0.92526
0,0,0.994011
0,0,1.000938
0,0,0.927343
0,0,0.915834
0,0,1.046719
0,0,0.93125
0,0,0.917084
0,0,0.927135
0,0,0.983802
0,0,0.96073
0,0,0.923802
2,2,0.966354
0,0,0.917552
0,0,0.925313
2,2,0.936302
0,0,1.00125
0,0,0.918907
0,0,0.932395
0,0,0.958698
0,0,0.920313
0,0,0.935468
0,0,0.918386
0,0,0.957448
0,0,0.919635
1,1,0.940677
0,0,1.072136
0,0,0.915104
0,0,0.934635
0,0,0.922709
0,0,0.974479
0,0,0.997604
0,0,0.910157
2,2,0.979792
0,0,0.938907
0,0,0.934531
0,0,0.934062
0,0,0.995885
0,0,0.949167
0,0,0.909427
0,0,0.979948
0,0,0.946459
0,0,0.928177
0,0,0.9125
0,0,0.972812
0,0,0.936875
0,0,0.917448
0,0,1.033802
0,0,0.95875
0,0,0.922135
0,0,0.91724
0,0,0.956615
0,0,0.925417
0,0,0.917552
0,0,0.973125
0,0,0.916303
1,1,0.913386
0,0,0.925208
0,0,1.000261
0,0,0.919791
0,0,0.923906
2,2,1.045781
0,0,0.923803
0,0,0.910573
0,0,0.92151
0,0,0.96625
0,0,0.916198
0,0,0.934114
0,0,1.009479
0,0,0.930364
0,0,0.930104
1,1,0.909896
0,0,0.956563
0,0,0.922396
0,0,0.914895
0,0,0.90651
0,0,0.957969
0,0,0.93224
0,0,0.917239
0,0,0.97073
0,0,0.929428
0,0,0.912604
0,0,0.915678
0,0,0.943959
1,1,0.923229
0,0,0.917448
0,0,0.98823
0,0,0.942552
0,0,0.918854
0,0,0.935105
0,0,1.013385
0,0,0.964739
0,0,0.919167
0,0,0.963907
0,0,0.924167
0,0,0.922708
0,0,0.938281
0,0,0.979219
0,0,0.917553
0,0,0.924896
2,2,0.980625
0,0,0.913594
0,0,0.919636
2,2,0.929167
0,0,0.9625
0,0,0.917136
0,0,0.930053
1,0,0.975208
0,0,0.935052
0,0,0.92
0,0,0.945
0,0,1.061823
0,0,0.94974
0,0,0.931251
2,2,0.962448
0,0,0.925625
0,0,0.915104
0,0,0.92724
0,0,0.961563
0,0,0.923073
0,0,0.94427
1,2,1.1125
0,2,0.917812
0,0,0.943229
0,0,0.919167
0,0,0.967916
0,0,0.932813
0,0,0.920989
0,0,0.962708
1,1,0.918334
0,0,0.959532
0,0,0.927864
0,0,1.031094
0,0,0.947865
0,0,0.927865
0,0,0.965781
0,0,0.940677
0,0,0.925521
0,0,0.93125
0,0,0.97375
0,0,0.924219
0,0,0.91698
0,0,1.014114
0,0,0.953958
0,0,0.916302
0,0,0.918386
0,0,0.992448
0,0,0.92401
2,2,0.912135
2,2,0.979114
0,0,0.92974
0,0,1.0175
0,0,0.921927
0,0,1.073542
0,0,0.926667
2,2,0.916927
0,0,0.959688
0,0,0.914584
0,0,0.924896
1,1,0.917292
0,0,0.953125
2,2,0.921719
2,2,0.917396
0,0,0.99198
0,0,0.920364
0,0,0.917239
0,0,0.915104
0,0,0.993854
2,2,0.940312
0,0,0.919791
0,0,0.912657
1,1,0.985104
0,0,0.91599
0,0,0.941094
0,0,1.024688
0,0,0.925156
0,0,0.91323
0,0,0.913333
2,2,0.992761
0,0,0.921719
0,0,0.980052
0,0,0.980365
0,0,0.912084
0,0,0.926407
0,0,0.914375
0,0,0.980573
0,0,0.9125
0,0,0.92073
0,0,0.946875
0,0,0.922865
0,0,0.909792
0,0,0.930209
0,0,0.985729
0,0,0.927135
2,2,0.92724
0,0,0.996563
0,0,0.92125
0,0,0.919479
0,0,0.951615
0,0,0.985677
0,0,0.924948
2,2,0.960625
0,0,0.979427
0,0,0.9275
0,0,0.921303
0,0,0.944583
0,0,0.976823
0,0,0.915625
0,0,0.917083
0,0,0.968594
0,0,1.003438
0,0,0.923178
0,0,0.920209
0,0,0.974844
0,0,0.936823
0,0,0.928542
0,0,1.04026
0,0,0.936615
0,0,0.918959
0,0,0.921042
0,0,0.974635
2,2,0.964948
3,3,0.91698
2,2,0.945469
0,0,0.939739
0,0,0.911823
0,0,0.925104
0,0,0.995573
0,0,0.927969
0,0,0.924948
0,0,0.971198
0,0,0.929063
0,0,0.915156
0,0,0.920469
0,0,0.966718
0,0,0.925938
0,0,0.928906
0,0,1.035625
0,0,0.919636
0,0,0.921458
0,0,1.011146
0,0,0.957031
0,0,0.927396
0,0,0.915938
0,0,0.994635
0,0,0.922604
0,0,0.917396
0,0,0.934062
0,0,1.002709
1,1,0.919531
0,0,0.921563
0,0,0.975156
0,0,0.93448
0,0,0.922344
0,0,0.917604
0,0,0.974375
0,0,0.929219
0,0,0.919376
2,2,0.919271
2,2,1.010052
0,0,0.926354
0,0,0.92125
2,2,0.970625
0,0,0.918646
0,0,0.93
0,0,0.914011
0,0,0.983386
0,0,0.953073
0,0,0.934375
0,0,1.008646
0,0,1.007396
0,0,0.914375
0,0,0.977136
0,0,0.929427
2,2,0.923698
0,0,0.914531
0,0,0.968855
0,0,0.928333
0,0,0.930208
0,0,0.943438
0,0,1.035782
0,0,0.918959
0,0,0.930833
0,0,0.971979
0,0,0.922656
0,0,0.916406
0,0,0.916823
0,0,0.967812
0,0,0.929479
0,0,0.959636
0,0,1.023125
0,0,0.915729
1,0,0.931823
0,0,0.92073
2,2,0.969428
0,0,0.924063
0,0,0.928334
0,0,0.991614
2,2,0.920469
0,0,0.944219
2,2,1.004688
0,0,1.047813
0,0,0.947604
0,0,0.914636
0,0,0.97151
0,0,0.929791
0,0,0.91849
0,0,0.920573
0,0,0.985365
0,0,0.918333
0,0,0.926927
0,0,0.982032
0,0,0.957864
0,0,0.927969
0,0,0.929948
0,0,0.969844
0,0,0.916459
0,0,0.909063
0,0,0.970938
0,0,0.912969
1,0,0.915209
0,0,0.92375
0,0,1.089948
0,0,0.910729
0,0,0.941042
0,0,0.982239
0,0,0.924948
0,0,0.908854
0,0,0.922083
0,0,1.039948
1,0,0.917448
0,0,0.915469
0,0,0.992709
0,0,0.927709
0,0,0.921146
0,0,0.943959
0,0,0.990677
0,0,0.913177
0,0,0.930365
0,0,0.96349
0,0,0.937709
0,0,0.924479
0,0,0.933385
0,0,1.045
0,0,0.932084
0,0,0.94698
0,0,0.974948
0,0,0.950573
0,0,0.924532
0,0,0.909739
0,0,0.968021
0,0,0.925469
2,2,0.934271
0,0,0.99099
2,2,0.923073
0,0,0.949219
0,0,0.928437
0,0,1.022552
0,0,0.919271
0,0,0.992344
0,0,0.990625
0,0,0.924948
2,2,0.927135
0,0,0.928646
0,0,1.010625
0,0,0.935208
0,0,0.925573
0,0,0.969896
2,2,0.923229
0,0,0.933125
0,0,0.942031
0,0,0.96849
0,0,0.924323
0,0,0.932448
0,0,1.052708
0,0,0.926094
0,0,0.934166
2,2,0.923385
0,0,0.979532
0,0,0.927709
0,0,0.927552
2,2,0.970156
0,0,0.918333
0,0,0.940052
1,1,0.918334
0,0,1.016979
0,0,0.917969
0,0,0.926875
0,0,0.969271
0,0,1.01526
0,0,0.920053
0,0,0.922709
0,0,0.979636
0,0,0.928594
2,2,0.910521
0,0,0.998385
0,0,0.938125
0,0,0.911406
0,0,0.924636
0,0,0.964896
0,0,0.926719
0,0,0.911927
0,0,0.998541
0,0,0.94375
0,0,0.928698
0,0,0.915052
0,0,1.01026
0,0,0.913126
0,0,0.918854
0,0,0.950729
0,0,0.933854
0,0,0.912917
0,0,0.917708
1,1,0.960104
0,0,0.919323
0,0,0.909218
0,0,0.992188
0,0,0.918854
0,0,0.925
0,0,0.97
0,0,1.002344
0,0,0.922969
2,2,0.917344
0,0,0.980365
0,0,0.919323
0,0,0.920469
0,0,0.923854
0,0,1.018854
2,2,0.919584
0,0,0.924114
0,0,0.968437
0,0,0.934063
0,0,0.921146
0,0,0.915938
0,0,0.957864
0,0,0.918906
0,0,0.929375
0,0,0.924166
0,0,0.972448
2,2,0.929532
0,0,0.915521
1,1,0.957396
0,0,0.929479
1,0,0.926302
0,0,0.915156
0,0,0.957552
0,0,0.929114
0,0,0.921459
0,0,1.014219
0,0,0.992448
0,0,0.912865
0,0,0.918854
0,0,0.976979
0,0,0.9275
0,0,0.913281
0,0,0.958594
0,0,0.913177
0,0,0.936407
0,0,0.930625
0,0,1.00974
0,0,0.912188
0,0,0.917292
0,0,0.968958
0,0,0.920885
0,0,0.909219
0,0,0.938646
0,0,0.958802
0,0,0.923958
0,0,0.912864
2,2,1.028281
0,0,0.922239
0,0,0.923646
1,1,0.915261
0,0,0.9675
0,0,0.916615
0,0,0.923906
0,0,0.997709
0,0,0.931355
0,0,1.009428
0,0,0.933334
0,0,1.011875
0,0,0.931823
0,0,0.923542
0,0,0.966198
0,0,0.915468
0,0,0.926094
0,0,0.922032
0,0,0.960781
0,0,0.931198
0,0,0.943698
0,0,1.016354
0,0,0.940834
0,0,0.934219
1,0,0.919011
0,0,0.976927
0,0,0.921667
0,0,0.915157
0,0,0.930364
0,0,0.96375
0,0,0.963385
0,0,0.93
0,0,1.000417
0,0,0.940104
0,0,0.9125
0,0,0.915052
0,0,0.958282
0,0,0.91724
0,0,0.915053
0,0,1.100729
0,0,0.933385
0,0,0.928438
0,0,0.92099
0,0,1.07724
0,0,0.915625
0,0,0.915573
0,0,0.985157
0,0,0.925989
0,0,0.911927
0,0,0.920937
0,0,0.966719
0,0,0.926458
0,0,0.926094
0,0,0.967813
0,0,0.924584
0,0,0.915625
0,0,0.941406
0,0,0.963802
0,0,0.915625
0,0,0.938646
0,0,0.969375
0,0,0.911771
2,2,0.921302
2,2,0.926875
0,0,1.059011
0,0,0.928698
0,0,0.931302
0,0,0.978802
0,0,0.923542
0,0,1.006406
0,0,0.916146
0,0,0.976146
2,2,0.921042
0,0,0.91875
0,0,0.988907
0,0,0.940052
0,0,0.957813
0,0,0.909896
0,0,0.953021
0,0,0.927135
2,2,0.925938
0,0,0.959844
0,0,0.924896
0,0,0.912864
0,0,0.991667
0,0,1.079896
0,0,0.945469
0,0,0.919323
0,0,0.978073
0,0,0.930573
0,0,0.944271
0,0,0.942656
0,0,0.97474
0,0,0.932917
0,0,0.924688
0,0,0.992239
0,0,0.918282
0,0,0.917812
2,2,0.955365
0,0,1.094792
2,2,0.924635
0,0,0.930104
0,0,0.87323
0,0,0.779063
0,0,0.776771
0,0,0.79401
2,2,0.892865
0,0,0.785729
0,0,0.794323
0,0,0.791563
0,0,0.832032
0,0,0.793802
2,0,0.824635
0,0,0.7925
0,0,0.821771
2,2,0.807657
0,0,0.783594
0,0,0.782292
2,2,0.787812
0,0,0.81849
0,0,0.784323
0,0,0.782865
0,0,0.801719
0,0,0.850364
0,0,0.782864
0,0,0.794062
0,0,0.780468
0,0,0.815157
0,0,0.782136
0,0,0.885677
0,0,0.784062
0,0,0.872865
0,0,0.808802
0,0,0.782969
0,0,0.780886
0,0,0.825521
0,0,0.791562
0,0,0.78026
0,0,0.797448
0,0,0.850938
2,2,0.781354
0,0,0.781303
0,0,0.794531
0,0,0.858698
0,0,0.801771
1,1,0.791406
0,0,0.7975
0,0,0.829792
0,0,0.797604
0,0,0.802344
0,0,0.798698
0,0,0.81125
0,0,0.848438
0,0,0.798438
2,0,0.806459
0,0,0.793542
0,0,0.871042
0,0,0.797709
0,0,0.826042
3,3,0.896354
0,0,0.840938
0,0,0.78724
0,0,0.804375
0,0,0.786979
0,0,0.844635
0,0,0.795782
0,0,0.790938
0,0,0.783125
0,0,0.851875
0,0,0.783594
0,0,0.792187
0,0,0.79724
0,0,0.837084
0,0,0.804115
0,0,0.791511
2,2,0.794532
0,0,0.831928
0,0,0.796302
0,0,0.785157
2,2,0.788906
0,0,0.90224
0,0,0.808021
0,0,0.797448
0,0,0.800469
2,2,0.841667
2,2,0.795989
0,0,0.78724
0,0,0.825156
0,0,0.88849
0,0,0.789167
0,0,0.792136
0,0,0.806876
0,0,0.852709
0,0,0.791667
0,0,0.787344
0,0,0.80573
0,0,0.793698
0,0,0.845365
1,0,0.794583
0,0,0.79349
0,0,0.800365
2,2,0.82724
0,0,0.793021
0,0,0.793438
0,0,0.791875
1,1,0.888177
0,0,0.815834
0,0,0.802396
0,0,0.792864
0,0,0.832552
0,0,0.803177
1,1,0.795625
0,0,0.786511
0,0,0.828854
0,0,0.806876
0,0,0.788386
0,0,0.790208
0,0,0.854063
1,1,0.858437
0,0,0.789271
0,0,0.791042
0,0,0.827812
0,0,0.803229
0,0,0.796354
0,0,0.793073
0,0,0.855469
0,0,0.806563
0,0,0.789271
0,0,0.796146
0,0,0.881667
0,0,0.801563
0,0,0.791198
0,0,0.796406
0,0,0.838282
2,2,0.799323
0,0,0.79198
3,0,0.79526
0,0,0.795573
0,0,0.834323
0,0,0.787969
0,0,0.795208
0,0,0.795989
0,0,0.884479
0,0,0.794166
0,0,0.789375
0,0,0.800312
0,0,0.860625
0,0,0.790885
0,0,0.863906
0,0,0.802917
0,0,0.843594
0,0,0.789636
0,0,0.78875
0,0,0.801458
0,0,0.909479
0,0,0.802188
0,0,0.786563
0,0,0.794479
2,2,0.829427
0,0,0.791511
0,0,0.795886
0,0,0.80099
0,0,0.835729
0,0,0.793073
0,0,0.792656
0,0,0.78849
0,0,0.862239
3,3,0.798698
3,3,0.796459
0,0,0.80375
0,0,0.828438
0,0,0.794636
3,3,0.797501
0,0,0.790938
0,0,0.792448
0,0,0.853438
0,0,0.795989
0,0,0.794531
2,2,0.84625
0,0,0.876823
0,0,0.793073
0,0,0.798698
0,0,0.814115
0,0,0.858386
0,0,0.802083
0,0,0.802135
0,0,0.790885
0,0,0.856823
0,0,0.799948
0,0,0.803542
0,0,0.796563
0,0,0.837709
0,0,0.788229
0,0,0.786718
0,0,0.789271
0,0,0.872812
0,0,0.791927
0,0,0.796771
0,0,0.78349
0,0,0.836459
0,0,0.783855
0,0,0.791771
0,0,0.790469
0,0,0.884948
0,0,0.787656
0,0,0.787865
0,0,0.782708
0,0,0.851042
2,2,0.849062
0,0,0.784062
0,0,0.789062
0,0,0.842708
0,0,0.78276
0,0,0.781666
0,0,0.796406
0,0,0.811094
0,0,0.814584
0,0,0.7825
0,0,0.782761
0,0,0.78323
0,0,0.879167
0,0,0.799479
0,0,0.783177
0,0,0.795781
0,0,0.830885
0,0,0.788073
0,0,0.79677
0,0,0.787552
0,0,0.893177
2,2,0.79651
0,0,0.787396
2,2,0.784479
0,0,0.855521
0,0,0.802553
0,0,0.802761
0,0,0.78927
0,0,0.856562
0,0,0.86776
0,0,0.794167
0,0,0.791354
0,0,0.878594
0,0,0.795104
2,2,0.793281
0,0,0.79
0,0,0.864063
0,0,0.793125
0,0,0.790208
0,2,0.798282
0,0,0.832813
0,0,0.785156
0,0,0.788542
0,0,0.798959
2,2,0.787031
0,0,0.854219
0,0,0.791667
1,0,0.799583
0,0,0.784635
0,0,0.869375
0,0,0.798438
0,0,0.792865
0,0,0.793021
0,0,0.85349
2,2,0.792917
0,1,0.787969
0,0,0.794792
0,0,0.843073
0,0,0.796875
0,0,0.878021
0,0,0.799375
0,0,0.891355
0,0,0.806667
0,0,0.805834
0,0,0.790417
0,0,0.847344
0,0,0.789948
0,0,0.791927
0,0,0.79776
2,2,0.881093
0,0,0.804532
0,0,0.795469
0,0,0.792136
0,0,0.865937
2,2,0.792187
2,2,0.791354
0,0,0.799011
0,0,0.852917
2,2,0.797708
0,0,0.794428
0,0,0.798125
0,0,0.890573
0,0,0.795781
0,0,0.795313
0,0,0.800312
1,1,0.861667
0,0,0.792448
0,0,0.795938
0,0,0.791719
0,0,0.959115
0,0,0.817396
0,0,0.796459
0,0,0.79099
0,0,0.855261
0,0,0.7875
0,0,0.789531
0,0,0.788333
2,2,0.819166
2,2,0.858437
0,0,0.795729
0,0,0.792657
0,0,0.794896
0,0,0.851458
0,0,0.795833
2,2,0.825104
0,0,0.797292
0,0,0.824271
0,0,0.811927
0,0,0.791354
0,0,0.796666
0,0,0.856875
0,0,0.814271
0,0,0.793906
0,0,0.799115
0,0,0.852917
0,0,0.784375
0,0,0.783021
0,0,0.797188
0,0,0.874844
0,0,0.893281
0,0,0.790677
0,0,0.790261
0,0,0.872969
2,2,0.793698
0,0,0.811667
0,0,0.803125
1,1,0.823125
0,0,0.804688
0,0,0.78823
0,0,0.785677
0,0,0.851979
0,0,0.820886
0,0,0.785521
0,0,0.785885
0,0,0.888021
0,0,0.787864
0,0,0.783698
0,0,0.795365
0,0,0.824479
0,0,0.789115
0,0,0.783125
0,0,0.800261
2,2,0.790209
0,0,0.888802
2,2,0.789792
0,0,0.796511
0,0,0.78552
0,0,0.847865
0,0,0.819531
0,0,0.903906
2,2,0.804584
0,0,0.868385
0,0,0.790313
3,3,0.789583
0,0,0.920365
0,0,0.797656
0,0,0.819011
1,1,0.802865
0,0,0.903178
0,0,0.797917
0,0,0.797032
1,0,0.792396
0,0,0.852864
0,0,0.815729
0,0,0.800573
0,0,0.798698
0,0,0.871718
0,0,0.798698
0,0,0.788021
0,0,0.790313
0,0,0.858177
1,0,0.791302
0,0,0.811615
1,1,0.784791
3,3,0.837135
0,0,0.798542
0,0,0.808229
0,0,0.782396
0,0,0.785677
0,0,0.848125
0,0,0.788385
0,0,0.786198
0,0,0.789167
0,0,0.858073
0,0,0.784792
0,0,0.787188
0,0,0.784739
0,0,0.86625
1,1,0.787969
0,0,0.794532
0,0,0.80599
0,0,0.932448
3,3,0.789323
0,0,0.786563
0,0,0.783438
0,0,0.866407
0,0,0.790417
0,0,0.791094
0,0,0.792708
0,0,0.85276
2,2,0.786198
0,0,0.802552
1,1,0.797865
0,0,0.875365
0,0,0.796198
0,0,0.803333
0,0,0.799271
0,0,0.84724
0,0,0.900989
0,0,0.788959
0,0,0.806719
0,0,0.871458
0,0,0.787187
2,2,0.789635
0,0,0.790677
0,0,0.955157
0,0,0.813334
0,0,1.023855
0,0,0.817291
0,0,0.854375
0,0,0.813802
0,0,0.800834
0,0,0.809688
0,0,0.850365
0,0,0.787291
0,0,0.792292
0,0,0.799584
0,0,0.831667
0,0,0.800625
0,0,0.793437
0,0,0.791354
0,0,0.83125
0,0,0.805469
2,2,0.800677
0,0,0.823021
0,0,0.849479
0,0,0.813542
0,0,0.807604
0,0,0.893386
0,0,0.877604
2,2,0.79974
2,2,0.805834
0,0,0.801823
0,0,0.846302
0,0,0.802604
0,0,0.799218
0,0,0.798594
0,0,0.845105
0,0,0.803698
0,0,0.808334
0,0,0.794375
0,0,0.793177
0,0,0.840989
0,0,0.799219
0,2,0.809948
0,0,0.813334
0,0,0.848646
0,0,0.792031
0,0,0.79349
0,0,0.797344
2,2,0.865156
2,2,0.790157
2,2,0.786927
0,0,0.795938
0,0,0.83849
0,0,0.789636
0,0,0.790782
0,0,0.805313
0,0,0.919948
0,0,0.808438
0,0,1.078854
0,0,1.253229
0,0,0.818229
0,0,0.793073
0,0,0.885469
1,1,0.908802
0,0,0.851458
0,0,0.826458
0,0,0.836667
0,0,0.902135
0,0,1.46375
1,1,1.043594
0,0,1.10125
2,2,0.965833
0,0,0.966667
0,0,1.096823
0,0,0.909114
0,0,0.817604
0,0,0.802812
2,2,0.974792
1,1,0.809687
0,0,0.797864
0,0,0.829375
0,0,0.926875
0,0,0.804636
0,0,0.807709
0,0,0.806146
0,0,0.904218
0,0,0.892917
0,0,0.854948
0,0,0.873802
0,0,0.790886
0,0,0.769115
0,0,0.770312
0,0,0.769635
0,0,0.801771
0,0,0.767812
0,0,0.768489
0,0,0.77276
0,0,0.846771
0,0,0.787292
0,0,0.810573
0,0,0.770573
0,0,0.794792
0,0,0.777187
0,0,0.779844
0,0,0.770104
0,0,0.793438
0,0,0.779115
0,0,0.768281
0,0,0.771823
0,0,0.780417
0,0,0.822656
0,0,0.781666
3,0,0.776146
0,0,0.784427
0,0,0.820156
0,0,0.772604
0,0,0.82526
0,0,0.79849
0,0,0.831511
0,0,0.785312
0,0,0.784896
0,0,0.775886
0,0,0.817448
0,0,0.773386
0,0,0.774948
0,0,0.777969
0,0,0.819219
0,0,0.768541
0,0,0.779791
0,0,0.77448
0,0,0.778177
0,0,0.831145
0,0,0.768854
0,0,0.780261
0,0,0.773958
0,0,0.80698
0,0,0.776198
0,0,0.776458
0,0,0.770729
0,0,0.830521
0,0,0.771823
0,0,0.770417
2,2,0.771562
2,2,0.807031
0,0,0.777604
0,0,0.825
0,0,0.770625
0,0,0.777291
0,0,0.832708
2,2,0.774115
0,0,0.768958
0,0,0.772916
0,0,0.819376
0,0,0.774219
0,0,0.776719
0,0,0.767865
0,0,0.792292
0,0,0.766928
0,0,0.783386
0,0,0.773437
0,0,0.800052
0,0,0.769271
0,0,0.768021
0,0,0.76849
0,0,0.766719
0,0,0.807656
0,0,0.76849
0,0,0.766771
0,0,0.780781
0,0,0.801927
0,0,0.76823
0,0,0.775416
2,2,0.765521
0,0,0.855834
0,0,0.768281
0,0,0.848281
0,0,0.766875
0,0,0.806198
0,0,0.774063
0,0,0.769843
0,0,0.791928
0,0,0.819531
0,0,0.773177
0,0,0.785782
0,0,0.775937
0,0,0.785989
0,0,0.802708
0,0,0.77349
0,0,0.774948
0,0,0.77849
0,0,0.822605
0,0,0.778021
0,0,0.779896
0,0,0.775573
0,0,0.818177
0,0,0.768489
0,0,0.772969
2,2,0.786823
0,0,0.831823
0,0,0.777188
0,0,0.775364
0,0,0.777083
0,0,0.775886
2,2,0.80974
0,0,0.784115
0,0,0.832552
0,0,0.778386
0,0,0.818229
0,0,0.777552
0,0,0.775886
0,0,0.773958
0,0,0.801562
0,0,0.789844
0,0,0.78151
1,0,0.775834
0,0,0.810469
0,0,0.774583
0,0,0.774115
0,0,0.770729
0,0,0.788177
2,2,0.782292
0,0,0.776719
0,0,0.772916
1,1,0.770781
2,2,0.836459
0,0,0.762032
0,0,0.790104
0,0,0.775886
3,3,0.809063
2,2,0.76849
0,0,0.770833
0,0,0.775989
0,0,0.806927
1,1,0.784271
0,0,0.76901
0,0,0.842396
0,0,0.810781
0,0,0.778386
0,0,0.773854
0,0,0.770521
0,0,0.769375
2,2,0.806823
0,0,0.768229
1,1,0.769896
0,0,0.766302
0,0,0.81448
0,0,0.772969
0,0,0.768959
0,0,0.769062
0,0,0.814219
0,0,0.771875
1,1,0.767812
0,0,0.773438
2,2,0.811459
3,3,0.7675
0,0,0.776563
0,0,0.783594
0,0,0.779271
0,0,0.823282
0,0,0.769635
0,0,0.770469
0,0,0.768281
0,0,0.80375
0,0,0.776823
2,2,0.772968
0,0,0.825313
0,0,0.8125
0,0,0.788541
0,0,0.767812
2,2,0.767135
0,0,0.793178
0,0,0.767969
2,2,0.765313
0,0,0.764635
0,0,0.777396
0,0,0.833334
0,0,0.772604
0,0,0.767656
0,0,0.76776
1,0,0.805885
0,0,0.772605
0,0,0.782709
2,2,0.770156
0,0,0.790521
0,0,0.768177
0,0,0.766979
0,0,0.769062
0,0,0.789375
0,0,0.766615
0,0,0.770729
0,0,0.767864
0,0,0.766302
0,0,0.801198
0,0,0.766562
0,0,0.826719
0,0,0.769167
0,0,0.806406
0,0,0.76724
0,0,0.767656
0,0,0.767135
0,0,0.824948
0,0,0.769791
2,2,0.767969
2,2,0.764948
0,0,0.773906
0,0,0.815053
1,0,0.778386
0,0,0.773281
0,0,0.779636
0,0,0.821614
0,0,0.776719
0,0,0.768177
0,0,0.7725
0,0,0.797083
0,0,0.773541
0,0,0.790365
0,0,0.776198
0,0,0.815052
2,2,0.764844
0,0,0.763802
0,0,0.76474
0,0,0.765521
0,0,0.801823
0,0,0.767083
0,0,0.840677
0,0,0.778802
2,2,0.830157
0,0,0.768438
0,0,0.778854
0,0,0.770417
0,0,0.814844
0,0,0.770834
0,0,0.773803
0,0,0.774479
1,2,0.795521
0,0,0.781146
0,0,0.76724
0,0,0.772291
0,0,0.782031
0,0,0.778073
0,0,0.769375
0,0,0.773334
0,0,0.78349
0,0,0.811355
0,0,0.768021
0,0,0.774844
0,0,0.774167
0,0,0.802239
0,0,0.780364
0,0,0.776146
0,0,0.764688
0,0,0.820521
0,0,0.777605
0,0,0.784115
0,0,0.82474
0,0,0.824011
0,0,0.787239
0,0,0.764739
2,2,0.768021
0,0,0.778542
0,0,0.800365
0,0,0.778386
0,0,0.784687
0,0,0.769896
0,0,0.812865
0,0,0.771823
0,0,0.773646
0,0,0.766302
0,0,0.799063
2,2,0.768854
0,0,0.77599
0,0,0.763542
0,0,0.813959
0,0,0.772344
0,0,0.779479
0,0,0.774948
0,0,0.781302
0,0,0.821823
0,0,0.773854
0,0,0.840261
0,0,0.800677
0,0,0.815834
0,0,0.771614
0,0,0.780052
0,0,0.846562
0,0,0.82651
0,0,0.783178
0,0,0.774479
0,0,0.771511
0,0,0.795625
0,0,0.775573
0,0,0.772292
0,0,0.7725
0,0,0.806563
0,0,0.772864
0,0,0.772604
0,0,0.769948
2,2,0.771459
2,2,0.808385
0,0,0.784115
0,0,0.783386
0,0,0.774948
0,0,0.819948
0,0,0.776823
1,1,0.770885
0,0,0.772604
0,0,0.810416
0,0,0.771563
0,0,0.770573
0,0,0.761458
0,0,0.794948
0,0,0.771719
0,0,0.770677
0,0,0.774427
0,0,0.817083
0,0,0.807083
0,0,0.775261
0,0,0.789531
0,0,0.764792
2,2,0.809583
0,0,0.764323
0,0,0.762292
0,0,0.760781
0,0,0.79375
0,0,0.774218
0,0,0.772188
1,1,0.778594
0,0,0.823854
0,0,0.765
0,0,0.788959
2,2,0.76599
0,0,0.787604
0,0,0.825521
0,0,0.767396
1,1,0.766667
0,0,0.771146
2,2,0.814844
0,0,0.770625
0,0,0.772396
0,0,0.765781
0,0,0.800208
1,1,0.765677
0,0,0.77198
0,0,0.766093
0,0,0.882291
0,0,0.772604
0,0,0.766146
0,0,0.77224
0,0,0.771667
0,0,0.816146
0,0,0.786771
0,0,0.794427
0,0,0.764532
0,0,0.84099
2,2,0.780678
0,0,0.765104
0,0,0.777396
0,0,0.815365
0,0,0.777188
0,0,0.775469
0,0,0.773281
0,0,0.803594
2,2,0.777083
0,0,0.778385
0,0,0.777604
0,0,0.777708
0,0,0.79849
0,0,0.770156
0,0,0.774062
0,0,0.784375
0,0,0.814635
0,0,0.778073
0,0,0.779219
0,0,0.825782
0,0,0.797552
0,0,0.77823
0,0,0.771354
2,2,0.769219
2,2,0.842292
0,0,0.775209
0,0,0.774219
2,2,0.772084
2,2,0.817708
0,0,0.78448
0,0,0.773073
0,0,0.77901
2,2,0.769011
0,0,0.798646
0,0,0.770729
0,0,0.78099
0,0,0.770208
0,0,0.854271
0,0,0.773125
0,0,0.768438
0,0,0.772916
0,0,0.804375
0,0,0.775104
0,0,0.789375
0,0,0.792344
0,0,0.854792
0,0,0.773229
0,0,0.771876
0,0,0.767552
0,0,0.876666
0,0,0.785573
1,1,0.772813
0,0,0.774427
0,0,0.770834
0,0,0.813177
0,0,0.774844
0,0,0.77875
0,0,0.774479
0,0,0.835156
0,0,0.781719
2,2,0.773907
0,0,0.778542
0,0,0.802292
0,0,0.784115
0,0,0.776094
0,0,0.774532
0,0,0.806458
0,0,0.769427
0,0,0.76849
1,1,0.775625
0,0,0.766563
0,0,0.795729
0,0,0.783021
0,0,0.777708
0,0,0.76474
0,0,0.825989
0,0,0.782032
0,0,0.765469
1,1,0.767396
0,0,0.855052
0,0,0.769896
2,2,0.766823
0,0,0.770261
0,0,0.790677
0,0,0.770833
0,0,0.772448
1,1,0.773125
0,0,0.787135
2,2,0.800625
0,0,0.774218
0,0,0.771927
0,0,0.775938
0,0,0.817709
0,0,0.782864
0,0,0.778333
0,0,0.775469
0,0,0.802032
0,0,0.772292
0,0,0.773073
0,0,0.769323
0,0,0.843854
0,0,0.782553
0,0,0.775312
2,2,0.779323
0,0,0.784428
0,0,0.814479
2,2,0.777656
0,0,0.7725
0,0,0.775157
0,0,0.888229
0,0,0.772448
0,0,0.770417
0,0,0.773542
0,0,0.811927
0,0,0.771667
0,0,0.773385
0,0,0.771302
0,0,0.814531
0,0,0.772605
0,0,0.784844
0,0,0.779271
0,0,0.818021
0,0,0.772969
0,0,0.770469
0,0,0.770625
0,0,0.769167
0,0,0.825886
0,0,0.776146
0,0,0.775208
0,0,0.770677
0,0,0.815052
0,0,0.773438
0,0,0.77125
0,0,0.771198
0,0,0.812031
0,0,0.770469
0,2,0.769375
0,0,0.76974
3,3,0.787864
0,0,0.810261
2,2,0.782344
0,0,0.78099
0,0,0.792448
0,0,0.881615
1,0,0.777187
0,0,0.771511
0,0,0.77125
0,0,0.802812
2,2,0.781355
0,0,0.774166
0,0,0.772031
0,0,0.839115
0,0,0.773021
1,1,0.771875
0,0,0.780261
0,0,0.809896
0,0,0.776458
0,0,0.772239
0,0,0.772344
0,0,0.77224
0,0,0.792761
0,0,0.785937
0,0,0.792552
0,0,0.77849
0,0,0.815729
0,0,0.770365
0,0,0.767657
0,0,0.772448
0,0,0.890104
0,0,0.767083
0,0,0.76526
0,0,0.772396
0,0,0.836302
0,0,0.768541
0,0,0.773542
0,0,0.770417
0,0,0.808698
0,0,0.775625
0,0,0.76823
0,0,0.764895
0,0,0.770312
0,0,0.802761
0,0,0.767239
0,0,0.76625
0,0,0.764479
0,0,0.809531
0,0,0.766875
0,0,0.769063
1,0,0.769271
0,0,0.799792
0,0,0.773906
0,0,0.779427
0,0,0.768281
0,0,0.769687
0,0,0.830729
0,0,0.769896
0,0,0.765208
2,2,0.766719
0,0,0.825677
0,0,0.765625
0,0,0.767083
0,0,0.763125
0,0,0.815261
2,2,0.766198
0,0,0.767344
2,2,0.768021
0,0,0.80099
0,0,0.76375
3,3,0.764844
0,0,0.768855
0,0,0.763125
0,0,0.779896
0,0,0.763282
1,1,0.768281
0,0,0.763542
0,0,0.785521
0,0,0.773959
0,0,0.773698
1,1,0.763438
0,0,0.802135
0,0,0.763177
0,0,0.76349
0,0,0.770261
0,0,0.763281
0,0,0.78401
0,0,0.763959
0,0,0.767448
0,0,0.768125
0,0,0.876355
0,0,0.772917
0,0,0.765261
0,0,0.772552
0,0,0.803021
0,0,0.766354
0,0,0.773333
0,0,0.76349
0,0,0.803594
0,0,0.775834
0,0,0.770937
0,0,0.771094
0,0,0.768698
0,0,0.791042
0,0,0.769063
2,2,0.775937
0,0,0.769375
0,0,0.812969
0,0,0.776042
0,0,0.771303
0,0,0.769011
0,0,0.809323
0,0,0.768802
0,0,0.772865
2,2,0.779896
2,2,0.831146
0,0,0.771146
0,0,0.781407
0,0,0.775156
0,0,0.777917
0,0,0.857604
3,3,0.773073
0,0,0.789323
0,0,0.764479
0,0,0.804219
0,0,0.772292
0,0,0.770312
0,0,0.767448
0,0,0.802917
0,0,0.771771
0,0,0.77
0,0,0.770573
0,0,0.820052
2,2,0.780156
0,0,0.776719
0,0,0.774688
2,2,0.772656
2,2,0.804896
0,0,0.766458
1,1,0.773334
0,0,0.767448
0,0,0.832188
0,0,0.766302
0,0,0.77
2,2,0.775573
0,0,0.816198
0,0,0.775938
0,0,0.773542
0,0,0.789479
0,0,0.8
0,0,0.82875
0,0,0.777188
0,0,0.764948
0,0,0.808542
0,0,0.765677
0,0,0.76375
0,0,0.764427
0,0,0.764427
0,0,0.811719
0,0,0.763959
0,0,0.764896
0,0,0.770156
0,0,0.82099
0,0,0.763958
0,0,0.764428
0,0,0.764375
0,0,0.849428
0,0,0.770313
0,3,0.771979
2,2,0.766719
0,0,0.765313
0,0,0.800625
0,0,0.765625
0,0,0.772031
0,0,0.765573
0,0,0.823073
0,0,0.771458
0,0,0.774688
0,0,0.767344
0,0,0.800364
0,0,0.835937
0,0,0.774063
0,0,0.777031
0,0,0.808593
0,0,0.768906
0,0,0.768385
0,0,0.774792
0,0,0.784948
0,0,0.797188
2,2,0.774688
0,0,0.771198
0,0,0.773021
1,0,0.833646
0,0,0.763958
2,2,0.773334
0,0,0.770573
0,0,0.797344
2,2,0.775365
0,0,0.775625
2,2,0.767969
0,0,0.804792
0,0,0.783594
0,0,0.771823
0,0,0.776094
0,0,0.77651
0,0,0.805209
0,0,0.775416
0,0,0.782292
0,0,0.767656
0,0,0.889011
1,1,0.766355
0,0,0.765261
0,0,0.767813
0,0,0.807864
0,0,0.771302
0,0,0.76724
0,0,0.781718
1,0,0.860625
0,0,0.767708
0,0,0.769583
2,2,0.772813
0,0,0.803854
0,0,0.773177
0,0,0.766667
2,2,0.769011
0,0,0.772187
0,0,0.802395
0,0,0.764896
0,0,0.770781
0,0,0.767917
0,0,0.802396
0,0,0.771563
0,0,0.767917
0,0,0.767969
0,0,0.803021
0,0,0.767969
0,0,0.775312
0,0,0.770625
0,0,0.772708
0,0,0.844896
0,0,0.764948
2,2,0.771458
0,0,0.767448
0,0,0.82349
0,0,0.769844
0,0,0.784636
0,0,0.782917
0,0,0.828334
0,0,0.787031
0,0,0.771511
0,0,0.764271
0,0,0.800104
0,0,0.768282
0,0,0.766198
0,0,0.76651
0,1,0.76849
0,0,0.795729
0,0,0.769479
0,0,0.768282
0,0,0.774948
0,0,0.816042
0,0,0.769792
0,0,0.78875
0,0,0.778958
0,0,0.804219
0,0,0.773229
0,0,0.774531
0,0,0.770625
0,0,0.839323
0,0,0.818282
0,0,0.780209
0,0,0.775833
0,0,0.867656
0,0,0.783802
0,0,0.777968
0,0,0.779896
0,0,0.779844
0,0,0.802292
0,0,0.779739
0,0,0.780833
0,0,0.779323
2,2,0.817083
0,0,0.782761
0,0,0.784688
0,0,0.77724
0,0,0.814532
0,0,0.783021
0,0,0.776406
0,0,0.77448
0,0,0.839688
0,0,0.780104
0,0,0.777553
0,0,0.776562
0,0,0.832084
0,0,0.784063
0,0,0.778646
0,0,0.794063
2,2,0.781771
0,0,0.83349
0,0,0.834427
0,0,0.786927
0,0,0.776875
0,0,0.812708
0,0,0.77651
0,0,0.774323
0,0,0.767813
0,0,0.797917
0,0,0.771042
0,0,0.779375
0,0,0.770261
0,0,0.830729
0,0,0.771511
0,0,0.770833
0,0,0.76224
0,0,0.776042
0,0,0.802187
0,0,0.780573
0,0,0.773906
0,0,0.774115
0,0,0.829062
0,0,0.771354
0,0,0.773855
0,0,0.767864
0,0,0.820261
0,0,0.781771
0,0,0.776615
0,0,0.775417
0,0,0.793542
0,0,0.775833
2,0,0.823958
0,0,0.773646
0,0,0.794219
0,0,0.77401
2,2,0.766823
0,0,0.768594
0,0,0.773177
0,0,0.806667
0,0,0.776615
0,0,0.78125
0,0,0.76698
2,2,0.802187
0,0,0.766666
0,0,0.789011
0,0,0.779375
0,0,0.855938
0,0,0.766094
0,0,0.764843
0,0,0.776355
0,0,0.806458
0,0,0.773333
0,0,0.820625
0,0,0.781354
0,0,0.840938
0,0,0.785989
0,0,0.774166
0,0,0.780625
0,0,0.793698
0,0,0.780521
0,0,0.822135
0,0,0.77599
0,0,0.940156
0,0,0.802708
0,0,0.779584
0,0,0.771042
0,0,0.775417
0,0,0.815833
2,2,0.772604
1,0,0.774896
0,0,0.77448
0,0,0.845677
0,0,0.768907
0,0,0.774843
0,0,0.771093
0,0,0.818802
0,0,0.777031
0,0,0.77276
0,0,0.775834
0,0,0.821042
0,0,0.775104
0,0,0.775989
0,0,0.769896
0,0,0.796614
0,0,0.76974
0,0,0.767761
0,0,0.781563
0,0,0.766042
0,0,0.817605
0,0,0.787031
0,0,0.822553
0,0,0.775208
0,0,0.806511
0,0,0.777292
0,0,0.773438
0,0,0.772188
0,0,0.84776
0,0,0.771719
0,0,0.783959
0,0,0.773959
0,0,0.8125
0,0,0.76901
0,0,0.78
0,0,0.775
0,0,0.774271
0,0,0.805625
0,0,0.774219
0,0,0.778021
0,0,0.774427
0,0,0.808385
0,0,0.772605
0,0,0.773333
0,0,0.775261
0,0,0.813385
0,0,0.77651
2,2,0.774844
0,0,0.772865
0,0,0.813334
0,0,0.767656
0,0,0.774219
0,0,0.824687
0,0,0.773489
0,0,0.817709
0,0,0.770677
0,0,0.770469
0,0,0.772448
0,0,0.819739
0,0,0.787448
0,0,0.779947
0,0,0.778021
0,0,0.808802
0,0,0.767187
0,0,0.769427
0,0,0.768178
0,0,0.798958
0,0,0.769167
0,0,0.768854
0,0,0.765782
0,0,0.771041
0,0,0.79677
0,0,0.782656
0,0,0.790886
1,1,0.769479
0,0,0.810209
0,0,0.766771
2,2,0.766302
0,0,0.773854
0,0,0.835209
0,0,0.775573
0,0,0.769218
0,0,0.832553
0,0,0.824115
0,0,0.776927
0,0,0.766771
0,0,0.787135
0,0,0.788437
0,0,0.77448
3,3,0.780261
0,0,0.77026
0,0,0.766719
0,0,0.7925
0,0,0.773073
0,0,0.767865
0,0,0.776927
0,0,0.810104
0,0,0.768385
0,0,0.766771
0,0,0.766094
0,0,0.80375
0,0,0.767135
0,0,0.774844
0,0,0.764948
0,0,0.76651
2,2,0.820521
0,0,0.770468
0,0,0.773541
0,0,0.767291
0,0,0.807865
0,0,0.766823
2,2,0.76776
0,0,0.82875
0,0,0.819167
0,0,0.77375
0,0,0.772448
0,0,0.767604
0,0,0.804584
2,2,0.770781
0,0,0.77448
0,0,0.771041
2,2,0.779218
0,0,0.816042
0,0,0.775729
0,0,0.774323
0,0,0.768386
0,0,0.824479
0,0,0.794323
0,0,0.778438
0,0,0.779011
0,0,0.829948
0,0,0.773437
0,0,0.770521
2,2,0.764219
0,0,0.813021
0,0,0.770834
2,2,0.771302
2,2,0.7725
0,0,0.800834
0,0,0.785052
2,2,0.772396
0,0,0.830573
0,0,0.779062
0,0,0.800989
0,0,0.778333
0,0,0.77849
0,0,0.77073
0,0,0.814427
0,0,0.780677
0,0,0.772552
0,0,0.771562
0,0,0.794896
0,0,0.775729
0,0,0.789583
0,0,0.771927
2,2,0.846823
0,0,0.774323
0,0,0.778229
0,0,0.776719
0,0,0.769063
0,0,0.810364
3,2,0.769583
0,0,0.775469
0,0,0.770677
0,0,0.795261
0,0,0.773021
2,0,0.77
0,0,0.770677
0,0,0.840573
2,2,0.781146
2,2,0.779062
0,0,0.836875
0,0,0.821354
0,0,0.771771
2,2,0.769115
0,0,0.780781
0,0,0.822656
0,0,0.774323
0,0,0.773125
2,2,0.771823
0,0,0.771146
2,2,0.837031
0,0,0.77526
0,0,0.771928
0,0,0.77625
0,0,0.813594
2,2,0.777031
0,0,0.772812
2,2,0.773645
0,0,0.814218
0,0,0.770677
0,0,0.77448
0,0,0.75974
0,0,0.795469
0,0,0.771875
2,2,0.761042
0,0,0.787083
1,1,0.782083
0,0,0.818021
0,0,0.767084
0,0,0.7675
0,0,0.817813
0,0,0.806145
0,0,0.76901
0,0,0.772084
0,0,0.769167
0,0,0.820208
0,0,0.773125
0,0,0.77224
0,0,0.786458
0,0,0.81448
0,0,0.780625
0,0,0.769167
0,0,0.771928
0,0,0.768177
0,0,0.801927
0,0,0.78276
2,2,0.783698
0,0,0.778854
0,0,0.800156
0,0,0.775521
0,0,0.770156
0,0,0.770416
2,2,0.81526
0,0,0.770052
1,0,0.787656
0,0,0.765312
0,0,0.790834
0,0,0.781666
2,2,0.765781
0,0,0.787292
0,0,0.818698
0,0,0.843958
0,0,0.786979
0,0,0.778178
0,0,0.788333
0,0,0.817657
0,0,0.780208
0,0,0.768177
0,0,0.767344
0,0,0.809271
0,0,0.767396
0,0,0.768177
2,2,0.775104
0,0,0.80125
0,0,0.768021
0,0,0.766198
0,0,0.777969
0,0,0.767917
0,0,0.814115
0,0,0.776146
0,0,0.77099
0,0,0.768177
0,0,0.814636
0,0,0.768177
0,0,0.765938
0,0,0.769531
0,0,0.824114
0,0,0.768958
0,0,0.768594
0,0,0.76599
0,0,0.851823
0,0,0.769114
0,0,0.771511
1,1,0.770677
0,0,0.764792
0,0,0.796875
0,0,0.784687
0,0,0.767136
0,0,0.77349
0,0,0.812032
0,0,0.772448
0,0,0.766354
2,2,0.768802
0,0,0.818073
0,0,0.771145
0,0,0.780364
0,0,0.765625
0,0,0.797917
0,0,0.766823
0,0,0.766875
0,0,0.768073
0,0,0.767709
0,0,0.825781
0,0,0.772708
0,0,0.76875
0,0,0.767917
0,0,0.808958
0,0,0.766562
0,0,0.774532
0,0,0.774688
0,0,0.854166
0,0,0.768542
0,0,0.767656
0,0,0.768854
0,0,0.804375
0,0,0.766094
0,0,0.767552
0,0,0.77099
0,0,0.768229
0,0,0.800208
0,0,0.766614
0,0,0.77
0,0,0.769323
0,0,0.827344
0,0,0.78625
0,0,0.769479
0,0,0.768542
0,0,0.834115
0,0,0.770313
0,0,0.77401
2,2,0.771667
0,0,0.816407
0,0,0.771458
0,0,0.777657
0,0,0.773959
0,0,0.771771
0,0,0.826615
0,0,0.780729
0,0,0.774948
0,0,0.833854
2,2,0.806979
0,0,0.774167
0,0,0.7775
0,0,0.771354
0,0,0.819219
0,0,0.77474
2,2,0.772396
0,0,0.765938
0,0,0.7925
0,0,0.768646
2,2,0.767396
1,0,0.7725
0,0,0.778594
0,0,0.837813
0,0,0.777032
0,0,0.774271
2,2,0.763073
0,0,0.802083
1,1,0.777604
0,0,0.778438
0,0,0.776094
0,0,0.794011
0,0,0.773021
2,2,0.776042
0,0,0.771042
0,0,0.795521
2,2,0.775364
0,0,0.775834
0,0,0.766406
0,0,0.828646
0,0,0.804948
0,0,0.770729
0,0,0.774427
0,0,0.76875
0,0,0.818906
0,0,0.776875
0,0,0.775104
0,0,0.771719
0,0,0.82625
0,0,0.772344
0,0,0.770313
0,0,0.764167
0,0,0.813282
0,0,0.781615
0,0,0.769791
0,0,0.784427
0,0,0.778073
0,0,0.807083
1,1,0.77573
0,0,0.783334
0,0,0.787083
0,0,0.810782
0,0,0.776354
0,0,0.776563
0,0,0.768802
0,0,0.822968
0,0,0.773854
0,0,0.77026
0,0,0.767188
0,0,0.88625
0,0,0.780678
0,0,0.775834
0,0,0.770573
0,0,0.841719
0,0,0.771615
0,0,0.773698
0,0,0.787812
0,0,0.769792
0,0,0.809375
0,0,0.771979
0,0,0.770365
0,0,0.76974
0,0,0.805
0,0,0.774011
0,0,0.770729
0,0,0.772083
0,0,0.796927
0,0,0.771927
0,0,0.79474
0,0,0.783282
0,0,0.803542
0,0,0.76573
0,0,0.773959
0,0,0.770261
0,0,0.768958
0,0,0.801458
0,0,0.774323
0,0,0.770417
0,0,0.769636
0,0,0.882135
0,0,0.779844
0,0,0.781667
0,0,0.784427
0,0,0.830678
0,0,0.770052
0,0,0.767396
0,0,0.772761
0,0,0.812969
0,0,0.775521
0,0,0.772344
0,0,0.776562
3,3,0.773385
1,1,0.809479
0,0,0.77198
0,0,0.771823
0,0,0.776667
2,2,0.834115
0,0,0.77875
0,0,0.773646
2,2,0.769792
2,2,0.838854
0,0,0.779114
0,0,0.775052
0,0,0.771667
0,0,0.855625
0,0,0.780677
0,0,0.772865
0,0,0.783959
0,0,0.809896
0,0,0.812969
0,0,0.784479
0,0,0.772187
0,0,0.7725
0,0,0.808958
0,0,0.776198
1,1,0.771719
0,0,0.770365
0,0,0.803229
0,0,0.772708
0,0,0.770678
0,0,0.781302
2,2,0.816719
0,0,0.771198
0,0,0.770156
0,0,0.780313
0,0,0.799011
0,0,0.769271
0,0,0.772969
1,1,0.771876
0,0,0.781198
2,2,0.832604
2,2,0.777032
0,0,0.780573
0,0,0.775105
0,0,0.8075
2,2,0.771042
0,0,0.769739
0,0,0.770573
0,0,0.833802
0,0,0.771458
0,0,0.775
0,0,0.80448
0,0,0.820573
0,0,0.771979
0,0,0.786198
0,0,0.778906
0,0,0.830729
0,0,0.775573
2,2,0.769896
0,0,0.768542
0,0,0.766823
0,0,0.80474
0,0,0.765729
2,2,0.772968
0,0,0.772187
0,0,0.878645
0,0,0.769323
0,0,0.776563
1,1,0.770104
0,0,0.810729
0,0,0.775833
0,0,0.784376
0,0,0.773645
0,0,0.81677
0,0,0.775573
0,0,0.778437
0,0,0.7775
0,0,0.773542
0,0,0.86401
0,0,0.779167
0,0,0.774896
1,1,0.773594
2,2,0.82849
0,0,0.776146
0,0,0.775156
0,0,0.780886
0,0,0.807605
1,0,0.785416
2,2,0.792239
0,0,0.789427
2,2,0.849688
0,0,0.775261
0,0,0.788698
0,0,0.775365
0,0,0.814115
0,0,0.772813
0,0,0.771927
0,0,0.774584
0,0,0.764062
0,0,0.805
0,0,0.781666
0,0,0.770677
0,0,0.785
0,0,0.796979
0,0,0.780677
0,0,0.771719
0,0,0.769895
0,0,0.809011
0,0,0.811302
0,0,0.777552
0,0,0.770104
0,0,0.788594
0,0,0.775208
0,0,0.767396
0,0,0.783125
0,0,0.768646
0,0,0.827396
0,0,0.768906
0,0,0.769062
0,0,0.765989
0,0,0.80375
0,0,0.770469
0,0,0.784062
3,2,0.770104
1,1,0.794531
2,2,0.775938
2,2,0.771615
0,0,0.772761
0,0,0.812084
0,0,0.774896
0,0,0.779583
0,0,0.773489
0,0,0.765365
0,0,0.799219
0,0,0.774114
0,0,0.777032
0,0,0.778333
0,0,0.829791
0,0,0.807188
0,0,0.768646
0,0,0.772917
0,0,0.822813
0,0,0.776614
0,0,0.786615
0,0,0.764583
0,0,0.811823
0,0,0.765938
0,0,0.766198
0,0,0.774688
0,0,0.7725
2,2,0.81875
0,0,0.769427
0,0,0.767136
0,0,0.773594
0,0,0.78724
0,0,0.76276
0,0,0.770782
0,0,0.772969
0,0,0.803594
0,0,0.762761
0,0,0.763125
0,0,0.781614
0,0,0.797969
2,2,0.765208
0,0,0.768854
0,0,0.781771
0,0,0.767344
2,2,0.834688
0,0,0.818021
0,0,0.7675
0,0,0.770052
2,2,0.819896
0,0,0.77302
0,0,0.767396
0,0,0.767135
0,0,0.794375
2,2,0.763282
0,0,0.768646
0,0,0.764115
0,0,0.79427
0,0,0.775521
0,0,0.770729
0,0,0.763438
0,0,0.766458
0,0,0.873333
0,0,0.781198
0,0,0.786146
0,0,0.774114
0,0,0.812657
0,0,0.769323
0,0,0.775052
0,0,0.780312
0,0,0.842656
0,0,0.779427
2,2,0.788489
2,2,0.779427
2,2,0.80474
0,0,0.774896
0,0,0.840677
0,0,0.768542
0,0,0.779635
0,0,0.809428
0,0,0.779167
0,0,0.769219
0,0,0.771198
0,0,0.812291
0,0,0.784739
0,0,0.778802
2,2,0.782188
0,0,0.810677
2,2,0.767501
0,0,0.772187
0,0,0.773333
0,0,0.811719
0,0,0.773073
0,0,0.767239
3,3,0.775833
0,0,0.775989
0,0,0.842709
0,0,0.774011
0,0,0.772396
0,0,0.77
0,0,0.825208
0,0,0.776614
0,0,0.769427
0,0,0.778958
0,0,0.806771
0,0,0.829271
0,0,0.771615
0,0,0.772552
0,0,0.791198
0,0,0.775053
0,0,0.784531
2,2,0.788698
0,0,0.837917
0,0,0.773802
0,0,0.774844
0,0,0.789323
0,0,0.774688
0,0,0.807709
0,0,0.778855
0,0,0.7725
0,0,0.772916
0,0,0.832136
0,0,0.770573
0,0,0.772761
0,0,0.790001
0,0,0.812969
0,0,0.764323
0,0,0.772448
0,0,0.766511
1,1,0.801041
0,0,0.775573
0,0,0.769375
0,0,0.766146
0,0,0.76625
2,2,0.811667
0,0,0.838438
0,0,0.770833
0,0,0.789948
0,0,0.809635
0,0,0.765105
0,0,0.765833
0,0,0.764271
0,0,0.829167
0,0,0.772187
0,0,0.772604
0,0,0.770937
0,0,0.808542
0,0,0.768229
0,0,0.768229
0,0,0.768021
0,0,0.769844
1,1,0.822813
0,0,0.769687
0,0,0.774375
0,0,0.781667
0,0,0.814062
0,0,0.771458
0,0,0.767135
0,0,0.774531
0,0,0.803646
0,0,0.788959
0,0,0.775469
0,0,0.769375
0,0,0.814114
0,0,0.772812
0,0,0.840781
0,0,0.769427
0,0,0.7925
0,0,0.765209
0,0,0.771615
0,0,0.76375
0,0,0.775521
0,0,0.83651
0,0,0.767552
0,0,0.766198
1,1,0.765625
0,0,0.813021
0,0,0.768385
0,0,0.772969
0,0,0.76823
0,0,0.795312
0,0,0.767135
0,0,0.770105
0,0,0.774375
0,0,0.770937
0,0,0.795105
0,0,0.76401
0,0,0.766094
0,0,0.768646
0,0,0.817657
0,0,0.767812
0,0,0.768333
0,0,0.776459
2,2,0.795521
0,0,0.787032
0,0,0.822291
0,0,0.767916
0,0,0.831041
0,0,0.76526
0,0,0.774428
0,0,0.768698
2,2,0.765885
0,0,0.805209
0,0,0.767969
0,0,0.76802
0,0,0.773073
0,0,0.803021
0,0,0.777448
0,0,0.786302
0,0,0.77875
0,0,0.818333
0,0,0.774219
0,0,0.773021
0,0,0.770104
0,0,0.808021
0,0,0.770938
0,0,0.768542
0,0,0.770833
0,0,0.774427
0,0,0.812708
0,0,0.772969
0,0,0.773177
0,0,0.767813
0,0,0.839531
0,0,0.77526
0,0,0.828385
0,0,0.768854
2,2,0.816094
0,0,0.768802
2,2,0.76974
0,2,0.766667
2,2,0.799948
0,0,0.766198
0,0,0.773542
0,0,0.767708
0,0,0.768803
0,0,0.791875
0,0,0.773073
0,0,0.780625
0,0,0.77
0,0,0.833229
2,2,0.779375
0,0,0.774688
0,0,0.776979
0,0,0.809218
0,0,0.778854
0,0,0.776823
0,0,0.774271
0,0,0.837553
0,0,0.768541
2,2,0.769427
0,0,0.769219
0,0,0.808802
0,0,0.776719
0,0,0.810937
0,0,0.773907
0,0,0.781354
0,0,0.819063
0,0,0.778438
0,0,0.776302
0,0,0.790105
0,0,0.846771
0,0,0.773073
0,0,0.770677
0,0,0.774271
0,0,0.811094
0,0,0.76901
0,0,0.779531
0,0,0.773906
2,2,0.837969
0,0,0.772656
0,0,0.77724
1,1,0.775417
0,0,0.775781
0,0,0.845156
0,0,0.769427
0,0,0.766511
0,0,0.765209
0,0,0.823333
0,0,0.773593
0,0,0.776875
0,0,0.777501
0,0,0.811094
0,0,0.772188
0,0,0.83
0,0,0.768646
0,0,0.804271
1,1,0.77849
2,2,0.778125
0,0,0.771094
2,2,0.823438
0,0,0.769323
2,2,0.770573
0,0,0.776042
0,0,0.772552
0,0,0.804167
2,2,0.768334
0,0,0.769167
1,1,0.76724
0,0,0.827344
0,0,0.771927
2,2,0.783698
0,0,0.777969
0,0,0.809584
0,0,0.764115
0,0,0.783177
0,0,0.78401
0,0,0.8075
0,0,0.77974
0,0,0.77099
0,0,0.771927
0,0,0.771251
0,0,0.798854
0,0,0.767709
0,0,0.820312
2,2,0.786771
0,0,0.81724
0,0,0.783646
0,0,0.774427
0,0,0.774427
0,0,0.794427
0,0,0.763594
0,0,0.768177
0,0,0.774271
0,0,0.831094
0,0,0.765885
0,0,0.776667
0,0,0.771823
0,0,0.769479
0,0,0.817761
0,0,0.767709
0,0,0.77224
0,0,0.79474
0,0,0.812604
0,0,0.777813
0,0,0.780886
0,0,0.775209
1,0,0.806094
0,0,0.77875
0,0,0.777448
0,0,0.766562
0,0,0.815104
0,0,0.777969
0,0,0.776198
0,0,0.833959
0,0,0.773125
0,0,0.771771
0,0,0.768073
0,0,0.77026
0,0,0.780729
0,0,0.833386
0,0,0.772604
2,2,0.784271
0,0,0.794583
2,2,0.834323
0,0,0.767136
0,0,0.776667
0,0,0.784219
2,2,0.810313
0,0,0.780729
0,0,0.7725
0,0,0.778334
0,0,0.787917
0,0,0.776406
0,0,0.772448
0,0,0.777187
0,0,0.773437
0,0,0.821093
0,0,0.777032
0,0,0.771875
0,0,0.770052
0,0,0.800625
0,0,0.774635
0,0,0.77375
0,0,0.8175
0,0,0.840209
0,0,0.775834
0,0,0.781615
2,2,0.772136
0,0,0.818489
0,0,0.777292
0,0,0.776927
0,0,0.783959
0,0,0.773906
0,0,0.807657
0,0,0.769271
0,0,0.769739
0,0,0.771146
0,0,0.816198
0,0,0.773698
0,0,0.779792
0,0,0.772865
0,0,0.80349
0,0,0.766614
2,2,0.76875
0,0,0.775521
0,0,0.817813
0,0,0.775781
0,0,0.768073
2,2,0.770208
0,0,0.766563
0,0,0.820989
0,0,0.785677
0,0,0.774219
0,0,0.774792
1,0,0.820573
2,2,0.773907
0,0,0.775938
0,0,0.783437
0,0,0.809843
0,0,0.789063
0,0,0.767656
0,0,0.772969
0,0,0.833178
0,0,0.770313
0,0,0.774167
0,0,0.767344
2,2,0.84599
0,0,0.770729
0,0,0.766094
1,1,0.775105
0,0,0.76875
0,0,0.796563
0,0,0.783542
2,2,0.770052
0,0,0.78
0,0,0.813698
0,0,0.764948
0,0,0.764062
0,0,0.775
0,0,0.811823
0,0,0.770937
0,0,0.769115
0,0,0.812969
0,0,0.799688
2,2,0.778177
0,0,0.76901
0,0,0.766771
0,0,0.769323
0,0,0.80375
0,0,0.778073
0,0,0.80724
0,0,0.828698
0,0,0.782656
0,0,0.793281
3,3,0.769636
0,0,0.766615
0,0,0.791406
0,0,0.780104
0,0,0.782188
0,0,0.775521
0,0,0.846198
0,0,0.911042
0,0,0.770885
0,0,0.77349
0,0,0.810364
0,0,0.77323
0,0,0.77125
0,0,0.766407
0,0,0.7975
0,0,0.779636
0,0,0.777032
0,0,0.773386
0,0,0.846354
1,1,0.775053
2,2,0.771875
1,0,0.765677
0,0,0.77
0,0,0.808437
0,0,0.78026
0,0,0.76724
3,0,0.778021
0,0,0.809532
0,0,0.773073
1,1,0.77526
2,2,0.794843
2,2,0.825365
0,0,0.770312
0,0,0.777916
0,0,0.768385
0,0,0.805416
1,0,0.769635
0,0,0.770469
0,0,0.770365
0,0,0.774896
0,0,0.808021
0,0,0.778803
0,0,0.775052
0,0,0.775156
0,0,0.815157
0,0,0.770989
2,2,0.769532
0,0,0.773542
0,0,0.855001
0,0,0.767187
0,0,0.768334
0,0,0.776563
0,0,0.812865
0,0,0.78073
1,1,0.765312
0,0,0.770156
0,0,0.767553
0,0,0.844635
0,0,0.764948
0,0,0.774428
0,0,0.772343
0,0,0.81302
0,0,0.771094
0,0,0.779896
0,0,0.771771
0,0,0.801823
0,0,0.771198
0,0,0.782604
0,0,0.777135
0,0,0.806302
0,0,0.782917
0,0,0.77573
0,0,0.771146
0,0,0.782708
0,0,0.804218
2,2,0.765938
0,0,0.772188
0,0,0.768594
2,2,0.871771
0,0,0.767969
2,2,0.77125
0,0,0.772812
0,0,0.819636
0,0,0.769844
0,0,0.774114
0,0,0.766823
0,0,0.814063
0,0,0.774323
0,0,0.780104
0,0,0.769844
0,0,0.766198
2,2,0.837188
0,0,0.770365
0,0,0.766823
0,0,0.772969
2,2,0.791354
0,0,0.766875
0,0,0.766979
1,0,0.765729
0,0,0.803281
0,0,0.766771
0,0,0.779791
0,0,0.777552
2,2,0.805052
0,0,0.770729
0,0,0.77875
0,0,0.773646
0,0,0.769843
0,0,0.910989
0,0,0.769636
0,0,0.769166
0,2,0.77
0,0,0.813645
0,0,0.771146
0,0,0.768906
0,0,0.779635
0,0,0.794219
0,0,0.769687
0,0,0.771614
0,0,0.780104
0,0,0.788125
0,0,0.765938
0,0,0.777292
0,0,0.769427
0,0,0.776303
0,0,0.812084
2,2,0.776927
0,0,0.771198
0,0,0.788802
0,0,0.805573
0,0,0.783177
0,0,0.776146
0,0,0.77375
0,0,0.8575
0,0,0.770573
0,0,0.779427
2,2,0.771875
0,0,0.864792
0,0,0.778229
0,0,0.777969
0,0,0.779166
0,0,0.80875
0,0,0.777917
0,0,0.774739
0,0,0.787813
0,0,0.772865
0,0,0.799427
0,0,0.766875
0,0,0.766355
0,0,0.77875
0,0,0.815001
0,0,0.776876
0,0,0.775364
0,0,0.779584
0,0,0.809792
0,0,0.770781
0,0,0.774688
0,0,0.773281
0,0,0.817031
2,2,0.775053
0,0,0.770729
0,0,0.775833
0,0,0.770313
0,0,0.818906
0,0,0.769375
0,0,0.770208
0,0,0.774062
0,0,0.877604
2,2,0.768281
0,0,0.772032
0,0,0.765052
0,0,0.804636
0,0,0.766146
0,0,0.773802
0,0,0.769427
0,0,0.817448
0,0,0.776771
0,0,0.764792
0,0,0.770521
0,0,0.777761
0,0,0.801094
0,0,0.770417
0,0,0.789636
0,0,0.779584
0,0,0.832969
0,0,0.769427
0,0,0.78
0,0,0.769896
0,0,0.81349
0,0,0.765052
0,0,0.769479
1,0,0.766303
0,0,0.853438
0,0,0.775417
0,0,0.773177
0,0,0.775469
0,0,0.768698
2,0,0.854062
0,0,0.783438
0,0,0.797292
0,0,0.782344
0,0,0.845261
0,0,0.776562
0,0,0.776407
0,0,0.780521
0,0,0.82901
0,0,0.780678
0,0,0.773386
0,0,0.777136
0,0,0.832188
0,0,0.780364
0,0,0.785521
0,0,0.780678
0,0,0.812135
0,0,0.779688
0,0,0.774271
0,0,0.774948
0,0,0.820365
0,0,0.771823
0,0,0.778438
0,0,0.776979
0,0,0.780625
0,0,0.804323
0,0,0.773906
0,0,0.77802
0,0,0.776771
0,0,0.812656
0,0,0.822552
0,0,0.769896
0,0,0.783958
0,0,0.79875
0,0,0.778073
0,0,0.779583
0,0,0.771615
0,0,0.829219
0,0,0.765052
0,0,0.764479
0,0,0.760938
0,0,0.776823
0,0,0.813542
2,2,0.77573
0,0,0.764062
2,2,0.766094
0,0,0.797969
2,2,0.774427
0,0,0.76974
0,0,0.781562
0,0,0.796614
0,0,0.766771
0,0,0.776406
0,0,0.772969
0,0,0.821458
0,0,0.776875
2,2,0.772135
0,0,0.784479
0,0,0.774531
0,0,0.80474
0,0,0.835625
0,0,0.777709
2,2,0.776406
2,2,0.838958
0,0,0.772292
0,0,0.7675
0,0,0.767656
0,0,0.806354
0,0,0.788958
0,0,0.767552
0,0,0.767084
1,1,0.793489
2,2,0.776355
0,0,0.76724
2,2,0.7675
2,2,0.780833
0,0,0.801667
0,0,0.76974
0,0,0.771771
0,0,0.771146
0,0,0.806302
0,0,0.779115
0,0,0.775208
0,0,0.769792
2,2,0.815104
0,0,0.769532
0,0,0.779896
0,0,0.773854
0,0,0.81849
0,0,0.815365
0,0,0.770417
0,0,0.773333
0,0,0.768802
0,0,0.809063
0,0,0.772552
0,0,0.775261
0,0,0.772083
0,0,0.794271
0,0,0.780312
0,0,0.790157
0,0,0.772031
0,0,0.829844
0,0,0.775833
0,0,0.778229
0,0,0.786302
0,0,0.814115
2,2,0.783333
0,0,0.781979
0,0,0.774479
0,0,0.772501
0,0,0.793177
0,0,0.768594
1,1,0.768802
0,0,0.768802
0,0,0.849584
0,0,0.768021
0,0,0.779063
0,0,0.767656
0,0,0.814062
0,0,0.826823
0,0,0.769479
0,0,0.776666
0,0,0.811146
0,0,0.781563
0,0,0.764167
