label,pred,exec_time_ms
0,0,6.699324
0,0,7.514168
1,0,4.89198
0,0,3.320001
2,2,2.304427
2,2,1.121563
0,0,1.666458
0,0,1.251771
0,0,1.31625
0,4,1.240208
0,1,1.214792
0,0,1.273021
0,0,1.241562
0,0,1.22948
0,0,1.272917
3,3,1.239167
0,0,1.326302
0,1,1.2375
2,2,1.289271
1,0,1.347292
0,0,1.252396
0,0,1.293386
0,0,1.54724
2,0,1.104166
0,0,1.130678
0,0,1.10651
0,0,1.10151
0,0,1.145105
0,1,1.102917
0,0,1.152656
0,0,1.114271
0,0,1.114583
0,0,1.13375
0,0,1.113907
0,0,1.08823
0,0,1.14099
0,0,1.10724
0,0,1.156979
0,0,1.193906
0,0,1.095052
0,3,1.143437
0,0,1.135729
2,1,1.083594
0,0,1.063854
0,0,1.142344
0,1,1.066302
0,0,1.064167
0,3,1.119375
0,0,1.089635
0,0,1.066094
0,0,1.150833
0,1,1.063282
0,0,1.067084
0,0,1.161823
0,0,1.093906
0,3,1.135938
0,0,1.193021
0,0,1.375573
0,0,1.094219
0,0,1.219896
0,0,1.058906
0,0,1.046562
2,2,1.100625
0,0,1.052812
0,0,1.160938
0,0,1.068698
0,0,1.055312
0,0,1.088906
1,1,1.066459
0,0,1.038073
0,0,1.168333
0,0,1.067761
0,0,1.064114
0,2,1.029792
0,0,1.082604
0,0,1.057761
0,0,1.088386
1,0,1.041251
0,0,1.047812
0,0,1.043803
0,0,1.124219
0,0,1.155416
1,0,1.091354
0,0,1.044062
0,0,1.046406
0,0,1.050209
0,0,1.143282
0,0,1.04776
0,0,1.072187
0,0,1.251718
0,0,1.075573
0,0,1.031719
0,0,1.081667
0,0,1.050052
0,1,1.051667
0,0,1.070365
1,1,1.09974
0,0,1.142552
0,0,1.09026
0,0,1.071823
2,2,1.112864
0,0,1.086771
0,1,1.032344
0,0,1.096198
0,0,1.043906
0,0,1.039375
0,0,1.062083
2,3,1.644584
0,0,1.064896
0,0,1.124532
0,0,1.025417
0,0,1.034636
0,0,1.059323
0,0,1.027657
0,0,1.022865
0,0,1.086407
0,3,1.008333
0,0,1.017031
0,0,1.031719
0,0,1.120261
0,0,1.008073
0,0,1.116823
0,0,1.055573
0,0,1.034323
0,0,1.026458
0,0,1.071875
0,0,0.995
0,0,1.018594
0,0,1.048177
0,0,0.998334
0,1,0.994271
0,0,1.100729
0,0,1.014687
0,3,1.014011
0,0,1.047292
0,0,1.019427
0,0,1.028385
0,0,1.074011
0,0,1.022605
0,0,0.99375
0,0,1.058803
0,0,1.016666
0,3,1.018385
0,0,0.999792
0,0,1.053073
0,2,1.017812
0,0,1.004688
1,0,1.114948
0,1,1.033959
0,0,1.134479
0,0,1.065364
0,0,1.008646
0,0,0.992448
0,0,1.067292
0,0,1.014115
0,0,1.00823
0,0,1.104896
0,0,1.028125
0,0,1.032552
0,0,1.060156
0,0,1.005052
0,0,1.012552
0,0,1.062657
0,0,1.01849
0,0,1.010105
0,3,1.012865
0,3,1.026406
0,0,1.014896
0,0,1.005782
0,0,1.071458
0,3,1.009792
0,1,0.995625
0,0,1.052239
0,0,1.027032
2,2,1.025677
0,0,1.053281
0,0,1.008281
0,0,1.008958
0,0,1.231042
0,0,1.053437
0,0,1.01073
0,0,1.059271
2,2,1.007812
0,0,1.005261
0,0,1.095365
0,0,1.021562
0,0,1.018646
0,0,1.03724
0,0,1.013333
0,0,0.998907
0,0,1.012917
1,1,1.042865
0,0,1.013125
0,0,1.005677
0,3,1.033646
0,0,1.01599
0,0,1.014948
0,3,1.04474
0,0,0.982969
2,2,0.997604
0,0,1.055
0,0,0.999739
0,0,1.001093
0,0,1.08
0,0,1.005052
0,0,1.028854
0,0,0.979479
0,0,1.043646
2,2,1.117188
0,1,1.003646
1,0,1.11927
0,0,1.009166
0,0,1.003542
0,0,1.060469
0,0,0.981667
0,0,0.997605
2,2,1.078437
0,0,1.009948
0,0,1.003385
0,0,1.062969
0,0,0.992396
0,0,1.023698
2,2,0.987188
2,2,1.016198
0,0,1.007657
1,0,0.996979
0,0,1.049635
0,0,1.018541
0,0,1.006771
0,0,1.046042
0,0,1.027657
0,0,1.019635
0,0,1.055626
0,0,1.027344
3,3,1.003073
0,0,1.088593
0,0,1.008489
0,1,1.013021
1,0,1.190416
0,0,1.013803
0,0,1.005208
0,0,1.064531
0,0,1.01974
0,0,0.995573
1,1,0.999896
0,0,1.056563
0,0,1.005416
2,2,1.000521
2,2,1.04448
0,0,1.006719
0,0,1.002135
0,0,1.054688
0,0,1.01776
2,2,0.996875
0,3,1.046614
0,0,1.013959
0,0,1.008334
0,3,1.035885
0,0,1.034739
0,0,0.984271
0,0,0.994896
2,2,1.046771
0,1,0.999843
0,0,1.011927
1,0,1.063178
0,0,1.023073
0,0,1.006875
0,0,1.060469
3,0,1.180261
2,2,1.004479
2,2,1.064062
0,0,1.012135
0,0,0.987552
0,0,1.052969
0,0,0.995677
2,2,1.001042
0,0,1.055573
0,0,0.995834
0,0,1.014427
0,0,1.027813
0,0,1.07698
0,0,0.998333
0,0,1.012032
0,0,1.052083
0,0,1.003438
2,2,0.998907
2,3,1.069532
0,0,1.027344
0,3,0.997135
0,0,1.096771
1,1,1.016406
0,0,1.0075
0,0,1.035833
0,0,0.998802
0,0,1.002865
0,0,0.988698
0,0,1.063334
0,0,0.996562
0,0,1.093646
0,0,1.083177
0,0,1.040677
0,0,0.996302
3,3,1.045261
2,2,1.00526
0,0,1.01401
2,2,1.074114
0,0,1.028177
0,0,1.010313
0,0,1.051041
0,0,1.020261
0,0,1.017031
0,0,1.043698
0,0,1.019479
0,0,1.018645
0,0,1.050729
0,0,1.013126
0,0,0.996563
0,0,1.012813
2,2,1.049219
0,0,1.002969
0,0,1.013751
0,0,1.056094
0,0,1.013021
0,0,0.995833
0,0,1.132708
0,0,1.025364
0,0,1.007344
0,0,1.172709
0,1,1.00901
0,0,1.025573
0,0,1.066615
0,0,0.996666
0,0,1.004532
0,2,1.034375
0,0,0.996614
0,0,1.034219
0,0,1.014114
0,0,1.085
0,0,1.041354
0,0,1.012813
0,0,1.080312
0,0,1.036927
0,0,1.005157
0,0,1.071823
2,2,1.007917
0,0,1.022969
0,1,1.055677
0,0,1.019323
0,0,1.023334
0,0,1.067344
0,0,1.015001
0,0,1.009063
0,0,1.062291
0,0,1.014584
0,0,1.010781
0,0,1.098542
0,0,1.034583
0,0,1.138854
1,2,1.094532
2,2,1.043333
0,0,1.041458
0,0,1.018125
0,0,1.09401
0,0,0.992396
0,0,1.017761
0,0,1.056615
0,0,0.993177
0,0,0.994011
1,0,1.055261
2,3,0.994791
0,0,0.998698
0,0,1.086042
0,0,1.014323
0,0,0.99974
2,2,1.079844
0,0,0.991875
1,0,0.99901
0,0,0.986823
0,0,1.092657
0,0,0.995417
1,0,1.00026
0,0,1.07026
0,0,0.985
2,1,0.999063
0,0,1.077344
0,0,1.003855
0,0,0.990782
0,0,1.165313
0,0,1.012865
0,0,1.009115
0,1,1.076876
0,0,0.9975
0,0,1.002552
0,1,1.140573
0,0,0.99901
2,2,1.010313
2,2,1.049167
0,0,0.994739
0,0,0.984479
0,0,1.002448
2,2,1.113854
0,0,1.065417
0,0,1.009792
0,0,1.060157
2,2,1.027083
0,0,0.975156
0,0,1.046146
1,0,1.008959
0,0,1.009011
0,0,1.09026
0,0,0.987135
0,3,0.995469
0,0,1.071823
2,2,0.993854
0,0,0.988385
2,2,1.026459
0,0,1.065678
0,0,1.138021
0,0,0.995417
0,0,1.127292
0,3,1.003594
0,0,0.978281
0,0,1.056302
0,0,1.005989
0,0,0.998021
1,1,1.106615
0,0,1.018698
0,0,1.000938
0,0,1.094636
0,0,0.992969
0,0,1.000989
0,0,1.106823
0,0,0.996563
0,3,1.001615
0,0,1.033645
0,0,1.01599
0,1,1.011562
0,0,0.992657
0,0,1.067864
2,2,1.018854
0,0,0.978385
0,3,1.067031
0,0,0.993386
0,0,1.017552
0,0,1.035417
2,2,1.007916
0,0,1.015886
0,0,1.278386
0,1,1.000312
0,0,0.984375
0,0,1.09177
0,0,1.027761
0,0,1.002032
1,1,1.086979
0,1,1.000469
0,0,1.015938
0,0,1.004323
0,1,1.09375
2,2,1.012135
0,0,0.99099
0,0,1.041823
0,0,0.993854
0,0,1.019635
0,0,1.06849
0,0,1.003698
0,1,0.982292
0,0,1.090885
0,0,1.005469
0,0,1.091562
0,0,1.133958
0,0,1.001823
0,0,1.006927
0,0,1.076719
0,0,0.981927
0,0,0.997031
0,0,1.006302
0,0,1.049636
0,0,1.100521
0,0,0.991718
0,0,1.062344
0,0,0.987708
0,0,0.983906
0,0,1.039427
0,0,1.289792
0,0,1.032604
2,2,1.102865
0,0,1.027032
0,0,1.027552
0,0,1.126719
0,0,1.016719
0,0,1.018021
0,0,1.059687
0,0,1.005886
0,4,1.022135
0,0,1.10599
0,0,1.021927
0,0,0.992032
0,0,1.068021
0,0,1.016198
0,0,1.037916
0,0,1.055104
2,2,1.024323
0,0,1.02849
0,0,1.0025
0,0,1.117083
0,0,1.016771
0,0,1.133855
0,3,1.030989
0,0,1.061041
0,0,1.026198
0,0,1.057448
0,0,1.026771
0,0,1.279323
0,0,0.993542
0,0,0.982604
0,0,1.024584
0,0,0.986719
0,0,0.977552
2,2,0.991354
0,0,1.081094
0,0,0.982604
0,0,0.983125
0,0,1.062813
0,1,0.992136
0,0,0.984323
0,0,1.085834
0,0,0.980937
0,0,1.031458
0,0,1.026041
0,1,0.999323
0,0,0.980885
0,0,1.507708
0,3,0.972448
0,0,0.990365
2,0,1.017761
0,1,0.963698
0,0,1.050105
0,0,0.992916
0,0,1.015209
0,0,0.989479
2,2,0.956094
0,0,1.021875
0,0,0.988542
2,2,0.973906
0,0,1.022917
0,0,0.991459
0,0,0.955678
0,0,1.019739
0,0,0.97698
0,1,0.96901
0,0,0.966094
1,1,1.080208
0,0,0.992552
0,0,1.019479
0,0,1.011094
0,0,0.975781
0,0,0.972708
0,3,1.037813
0,0,1.206355
0,0,1.002396
0,0,1.046823
0,0,0.974219
0,0,0.983177
0,0,0.972761
0,0,1.032292
0,3,0.965521
0,0,1.079271
0,0,1.070989
0,1,0.971927
0,0,0.956511
0,0,1.027761
0,0,0.981614
0,0,0.980573
0,0,1.056406
0,0,0.954375
0,1,0.96526
0,0,1.043906
0,0,0.973489
0,0,0.964688
0,3,0.974115
2,2,1.089062
0,0,0.980417
0,0,0.964792
0,0,1.086458
2,2,0.976667
0,0,0.959532
2,2,1.020364
0,0,0.959271
2,2,0.986927
0,0,0.976823
0,0,1.04625
0,0,0.973438
0,0,0.988854
0,0,1.047448
0,0,0.976667
2,2,0.973021
0,0,1.183541
0,3,0.975313
0,0,0.985729
0,0,1.081302
0,0,0.992343
0,0,0.962083
0,0,1.079584
0,0,0.966458
2,2,0.973229
0,0,0.964115
0,0,1.020573
0,0,0.969323
0,0,0.954688
0,0,1.078489
0,0,0.979479
0,1,0.962343
0,0,1.026146
0,0,0.971771
0,0,0.967344
0,0,0.967864
0,0,1.047657
0,0,0.944636
0,0,0.987396
0,0,1.055937
0,0,0.969479
0,0,0.947761
0,0,1.106615
0,0,0.996927
0,1,0.957291
0,0,1.002396
0,0,1.103594
0,0,0.990625
0,0,1.047188
0,0,0.960365
1,1,0.980261
1,1,0.988959
0,0,1.029896
0,0,0.968542
0,0,0.990417
0,0,1.016823
0,0,0.956406
0,0,0.955886
0,0,1.044792
0,0,0.985365
0,0,0.962761
0,0,0.978958
0,0,1.04323
0,0,0.975521
0,1,0.977552
0,0,1.00349
0,1,0.964948
0,0,0.980521
0,3,1.061875
0,0,0.969532
0,1,0.965885
0,0,0.975104
0,0,0.988073
0,0,0.980573
0,0,0.965521
0,0,1.16823
0,1,0.976354
0,0,0.970261
0,0,1.060521
0,0,0.97151
0,0,0.980521
0,0,1.061042
0,0,0.967969
0,0,0.977708
0,0,1.052083
0,0,0.989792
0,0,1.016094
0,0,0.97099
0,0,1.024739
0,0,0.958385
0,0,0.968802
0,0,1.011771
0,0,0.961875
0,0,0.955677
1,1,1.018906
0,0,0.973229
0,0,0.966459
0,0,0.953282
0,0,1.052761
0,0,0.951302
0,0,0.957136
0,0,1.066042
0,0,0.979636
0,1,0.961302
0,0,0.989896
0,0,1.046979
0,0,0.979792
0,0,0.953073
0,0,1.013594
0,4,0.953229
0,0,0.998542
0,0,1.018698
0,0,0.965834
0,0,0.969011
0,0,1.010782
0,0,0.979219
0,0,0.97474
0,0,1.080573
2,2,0.965
0,0,0.956719
2,2,0.972708
0,0,1.080729
0,0,1.00375
0,0,0.977292
0,0,1.012448
0,0,0.970781
2,2,0.992292
0,0,1.058646
0,1,0.965208
0,0,0.966146
0,0,1.011406
0,0,0.969323
0,0,0.968593
0,0,0.986719
0,0,1.044219
0,0,1.040365
0,0,0.969584
0,0,1.051302
0,0,0.957344
0,0,0.96099
0,0,1.059583
0,0,0.973959
3,0,0.960521
0,1,0.958594
0,0,1.008438
2,2,0.976302
0,0,0.968698
0,0,1.059323
0,0,0.968125
0,0,0.985781
0,0,1.03
0,0,0.960208
0,0,0.997448
1,0,1.044843
0,0,0.978698
0,0,0.955365
0,0,0.95625
0,0,1.04276
0,0,0.989948
0,0,0.970313
0,0,1.088802
0,0,0.972605
0,0,0.967864
0,0,1.030521
0,0,0.991979
0,0,1.113906
2,2,1.063074
3,3,0.971979
0,0,0.994948
0,0,0.990469
0,0,1.031771
0,0,0.971458
0,0,0.968854
0,0,1.048854
0,0,0.98151
0,0,0.945678
0,0,1.05323
0,0,0.988802
0,0,1.031771
0,0,1.0575
0,0,1.352344
0,0,1.030313
0,0,1.046302
1,0,0.985156
0,3,0.979323
2,2,1.028073
0,3,0.971146
0,0,0.969427
2,2,0.980834
0,0,1.056511
0,0,0.990834
0,0,0.969375
0,0,1.086927
0,0,0.971823
0,0,0.971406
0,0,1.176406
0,0,1.007865
0,0,0.98125
0,0,1.077813
0,0,0.989531
0,0,0.997448
0,0,1.005833
0,0,0.98276
0,0,0.970209
2,2,0.993177
0,3,1.057656
0,0,0.980886
0,0,0.987552
0,2,1.023281
0,0,0.971407
0,3,0.9525
0,0,1.079323
0,0,0.979375
0,0,0.949479
0,0,0.953855
0,0,1.151563
0,0,0.973489
0,0,0.966667
0,1,1.029843
0,0,0.972969
0,0,0.982812
0,0,1.010573
0,3,0.96349
0,0,0.969792
0,0,1.097761
0,0,0.977916
0,0,0.959844
0,0,0.965469
0,0,1.010729
0,0,0.947708
0,0,0.978958
0,0,1.021875
0,0,0.990885
0,0,0.958073
0,2,1.017396
0,0,0.963229
0,0,0.957709
2,2,0.957032
2,2,1.026614
2,2,0.969167
0,0,0.961459
0,0,1.033073
0,0,0.994167
0,1,0.986928
0,0,1.034792
0,1,0.973542
0,0,0.974636
0,0,1.007448
2,2,0.969531
2,2,0.962344
0,0,0.961094
0,0,1.060365
0,0,0.978438
0,0,0.970104
0,0,340.794774
0,0,0.817187
0,0,0.785208
0,0,0.78125
0,0,1.239531
0,0,1.092031
0,0,0.901927
0,0,0.937552
0,0,0.890677
2,2,0.991667
0,0,0.878907
0,0,0.960886
0,0,0.88375
0,0,0.881198
0,1,0.925105
0,0,0.88625
0,0,0.893229
0,0,0.874896
2,2,0.965573
0,0,0.910313
0,0,0.896406
0,0,0.986042
0,0,0.883178
0,0,0.886771
0,0,0.881875
0,0,1.484115
0,0,0.84974
0,0,0.810313
0,0,0.904427
0,3,0.808959
0,0,0.90875
0,0,0.835104
0,0,0.896511
0,0,0.816355
0,0,0.820521
0,0,0.808593
0,0,0.867083
0,0,0.817813
0,0,0.817604
0,0,0.811041
0,0,0.883073
0,0,0.804583
0,0,0.808282
1,0,0.828281
0,0,0.884532
0,0,0.814011
3,2,0.818386
0,0,0.814375
2,2,1.188698
2,2,0.838698
0,0,0.78448
0,0,0.823959
0,0,0.786979
0,0,0.781614
0,4,0.777188
0,0,0.781146
0,0,0.824167
0,0,0.79073
0,0,0.775469
0,0,0.78276
0,0,0.86
0,0,0.786615
0,0,0.800521
0,0,0.791041
2,2,0.848073
0,0,0.789323
0,0,0.773021
0,0,0.779271
0,0,0.843229
0,0,0.789531
0,0,0.781928
0,0,0.771198
0,0,0.861354
0,0,0.786093
0,0,0.826406
2,0,0.774844
0,0,1.068385
0,0,0.796927
0,0,0.778073
0,0,0.783229
0,0,0.847552
0,0,0.793073
2,2,0.763646
0,0,0.787865
0,0,0.8075
0,1,0.782865
2,0,0.791354
0,0,0.776355
0,0,0.818125
0,0,0.785416
1,1,0.841354
2,2,0.771041
0,0,0.827813
0,0,0.800833
0,1,0.786459
0,0,0.790052
0,0,0.873073
0,0,0.793437
0,0,0.781407
0,0,0.785677
0,0,0.872291
2,2,0.786041
0,1,0.776511
0,0,0.788125
0,0,0.822605
0,0,0.78651
0,0,0.777136
0,1,0.779427
0,0,0.82198
0,0,0.817344
0,0,0.808125
0,1,0.785052
0,0,0.788489
0,0,0.8475
0,0,0.785261
0,0,0.782396
0,0,0.786823
0,0,0.843385
0,0,0.779583
0,3,0.780834
2,2,0.847135
0,0,0.861094
0,0,0.786979
0,0,0.789687
0,0,0.784791
0,0,0.813177
0,0,0.789635
0,0,0.795208
0,0,0.786823
0,0,0.848906
0,0,0.781458
2,2,0.782187
0,0,0.784114
0,0,0.813281
0,0,0.791042
2,0,0.786458
0,0,0.782552
0,0,0.805416
0,0,0.783541
0,0,0.777969
0,0,0.779896
0,0,0.85323
0,0,0.784896
0,0,0.784792
0,0,0.786459
0,0,0.843907
0,0,0.781198
0,0,0.780781
1,1,0.790625
0,0,0.869792
2,0,0.783437
0,0,0.784271
0,0,0.786563
0,0,0.781562
0,0,0.840052
0,0,0.814479
0,0,0.81526
0,1,0.794427
0,0,0.857343
0,0,0.785469
0,0,0.783802
0,0,0.777292
0,0,0.827448
2,3,0.793125
2,2,0.784271
0,0,0.786458
3,3,0.829427
0,0,0.833334
0,0,0.789844
0,0,1.007188
0,0,0.818594
0,0,0.787812
1,1,0.826458
0,0,0.853645
2,2,0.788333
0,0,0.797396
0,0,0.796458
0,0,0.868386
0,0,0.81875
0,0,1.036146
0,0,0.884531
0,0,1.051562
0,0,0.800625
0,0,0.790834
0,0,1.393646
0,3,0.781563
0,0,0.784011
0,0,0.785834
0,0,0.844063
2,2,0.776979
0,0,0.783854
0,0,0.783073
0,0,0.866615
0,0,0.793958
0,0,0.795573
2,2,0.805417
0,0,0.826771
0,0,0.785625
0,3,0.782552
0,0,0.788281
0,0,0.842396
0,0,0.826251
0,0,0.793854
0,0,0.779688
0,0,0.821667
0,0,0.792083
0,0,0.785677
0,1,0.786354
1,1,0.832292
0,0,0.851667
0,0,0.799427
0,0,0.797083
1,0,0.843646
0,0,0.788802
0,0,0.787291
0,0,0.793177
0,0,0.825885
0,0,0.789583
0,0,0.783854
0,0,0.783594
0,0,0.783646
1,0,0.815729
0,0,0.790729
0,3,0.786042
0,0,0.793594
0,0,0.822656
0,0,0.784479
0,0,0.780208
0,0,0.792083
2,2,0.823386
0,0,0.780886
3,3,0.783542
0,0,0.781719
0,0,0.816094
0,0,0.785417
0,0,0.782969
0,0,0.791041
0,0,0.831094
0,0,0.782916
0,0,0.859375
0,0,0.788594
0,1,0.85448
0,0,0.797344
0,0,0.786979
0,0,0.791406
0,0,0.807032
0,0,0.791563
0,0,0.805885
0,1,0.795105
0,0,0.84302
0,0,0.787448
0,3,0.786718
0,0,0.784271
0,0,0.823646
0,0,0.790729
1,0,0.782969
0,0,0.78974
0,0,0.803438
0,0,0.788906
0,0,0.780209
0,0,0.781355
0,0,0.786562
0,0,0.843125
0,3,0.785521
2,2,0.77573
0,0,0.781511
0,0,0.843489
0,0,0.792604
0,0,0.791303
0,0,0.859323
3,0,0.821875
0,0,0.788646
1,0,0.775677
0,0,0.778126
2,2,0.829218
0,0,0.789948
0,0,0.800417
0,0,0.785729
0,0,0.82375
1,0,0.78099
0,0,0.792396
0,0,0.78901
0,0,0.838385
2,2,0.790625
0,4,0.784323
0,0,0.789219
0,0,0.818958
0,0,0.788803
0,0,0.787239
0,0,0.782084
0,0,0.851823
0,0,0.807968
0,0,0.791666
2,2,0.808437
0,0,0.858333
0,0,0.782969
0,0,0.784739
0,0,0.79224
0,0,0.863906
0,0,0.783958
0,0,0.792239
0,0,0.779844
0,0,0.779843
0,0,0.789636
0,0,0.787396
0,0,0.780677
0,0,0.792292
1,1,0.807031
0,0,0.792813
0,0,0.787187
0,0,0.785157
2,2,0.845052
0,0,0.801458
0,0,0.798385
0,0,0.785938
0,0,0.854896
0,0,0.788907
0,0,0.786302
0,0,0.779375
0,0,0.822968
0,0,0.794375
0,0,0.785052
0,0,0.782552
0,0,0.829323
2,2,0.798438
0,0,0.781406
2,2,0.779167
0,0,0.819115
1,1,0.85375
0,0,0.789948
0,0,0.785469
0,0,0.828646
0,0,0.791511
0,0,0.787604
0,3,0.799635
0,0,0.833437
2,2,0.785208
2,2,0.79026
0,0,0.791563
0,0,0.826875
0,0,0.802083
0,0,0.803073
0,0,0.786562
0,0,0.839688
0,0,0.789584
0,0,0.799739
0,1,0.794375
0,0,0.784479
0,0,0.806146
0,0,0.799792
0,0,0.788906
0,1,0.786979
2,2,0.824843
0,0,0.786667
0,0,0.794843
0,0,0.785781
0,0,0.827656
0,0,0.783438
0,0,0.899427
0,0,0.805365
0,0,0.836771
0,0,0.787864
0,0,0.793125
0,0,0.793229
0,0,0.861459
0,0,0.799584
2,2,0.782448
0,0,0.786667
2,2,0.82125
0,0,0.790677
0,0,0.788958
0,0,0.791875
0,0,0.836823
1,1,0.789271
0,0,0.78573
2,2,0.787865
1,1,0.820469
0,3,0.790781
0,0,0.805938
0,0,0.796719
0,0,0.820885
0,0,0.782865
0,0,0.789531
0,0,0.805678
2,2,0.862135
0,0,0.78875
0,0,0.791875
0,0,0.805521
0,0,0.911979
0,0,0.811145
0,0,0.801041
0,0,0.798698
0,0,0.82349
2,2,0.7925
0,3,0.785885
0,0,0.792188
0,0,0.852396
2,2,0.814948
0,0,0.8
0,0,0.794114
0,0,0.814062
0,0,0.788906
0,0,0.789688
0,0,0.787917
0,0,0.838125
0,0,0.783698
0,0,0.793854
0,0,0.781666
0,0,0.8125
0,0,0.797448
0,0,0.799583
3,3,0.789427
0,1,0.798438
0,0,0.841979
0,0,0.793646
0,0,0.790833
0,0,0.78625
1,0,0.827344
0,0,0.851563
1,3,0.790521
0,0,0.798073
0,0,0.849635
0,0,0.791823
0,0,0.793021
0,0,0.789635
0,0,0.826511
0,0,0.796719
0,3,0.790781
0,0,0.786615
0,0,0.804896
0,0,0.792083
0,3,0.789114
0,0,0.785209
1,0,0.829115
0,0,0.807031
0,0,0.792135
0,0,0.80474
0,0,0.859063
0,0,0.789375
0,1,0.79198
0,0,0.80401
2,2,0.835365
0,0,0.786146
0,0,0.80224
0,0,0.798594
0,0,0.839219
0,0,0.784583
0,0,0.828385
0,0,0.803177
0,0,0.814792
0,0,0.783229
0,3,0.787917
0,0,0.783907
0,0,0.842448
2,2,0.789948
0,0,0.798438
0,0,0.799636
0,0,0.832916
0,0,0.794271
0,0,0.780729
0,0,0.787396
0,0,0.841614
0,0,0.804427
0,0,0.800417
0,0,0.785261
0,1,0.824948
0,0,0.798334
0,0,0.789427
0,0,0.797552
0,0,0.809896
1,1,0.815781
0,0,0.78948
0,0,0.788125
0,3,0.785261
0,0,0.814739
0,0,0.78198
0,0,0.785938
0,0,0.852344
0,0,0.821823
0,0,0.787448
0,0,0.808646
0,0,0.816355
0,0,0.857084
0,0,0.786979
0,0,0.775989
0,0,0.785678
0,0,0.862188
0,0,0.800625
0,0,0.808646
2,2,0.791615
0,0,0.811563
0,0,0.783593
0,2,0.795365
0,0,0.79849
0,0,0.850521
0,0,0.803958
0,0,0.784844
2,2,0.788073
0,0,0.815677
0,2,0.787187
0,0,0.791615
0,0,0.789219
0,0,0.821563
0,0,0.789635
0,0,0.788906
0,0,0.79
0,3,0.849739
0,0,0.842656
0,0,0.805677
0,3,0.794948
0,0,0.828334
0,0,0.781823
0,0,0.789896
0,0,0.795313
0,0,0.814323
0,0,0.800521
0,0,0.788073
0,0,0.793438
0,0,0.837188
0,0,0.788541
0,0,0.792396
0,0,0.795625
0,0,0.831667
0,0,0.781771
0,0,0.785885
0,0,0.78276
0,0,0.795573
1,0,0.842657
0,0,0.795209
0,0,0.792135
0,0,0.785937
0,3,0.825261
0,0,0.792396
0,0,0.785417
2,2,0.800678
0,0,0.841979
0,0,0.804896
0,0,0.842657
0,1,0.789844
0,0,0.817969
0,0,0.788021
0,0,0.793489
0,3,0.790052
0,0,0.848542
0,0,0.780521
0,0,0.794115
0,0,0.793386
0,0,0.834114
2,2,0.783073
0,0,0.787084
0,0,0.789948
0,0,0.821875
0,0,0.786458
0,0,0.785365
0,0,0.789375
0,0,0.820313
0,0,0.78974
0,0,0.78401
0,0,0.785938
0,2,0.845521
0,0,0.789635
0,0,0.7775
0,0,0.790573
0,0,0.814115
0,3,0.797708
0,0,0.797761
0,0,0.79026
0,0,0.890521
0,0,0.793386
0,0,0.789531
0,0,0.790313
0,0,0.809479
0,0,0.778906
0,0,0.801615
0,0,0.813958
1,0,0.792813
0,0,0.828698
0,0,0.769218
0,0,0.785417
3,0,0.777604
0,0,0.851511
0,0,0.789323
0,0,0.788958
0,0,0.788229
0,0,0.859843
0,0,0.790625
0,0,0.785678
0,0,0.794636
0,0,0.845052
0,0,0.944688
0,0,0.79073
0,0,0.786667
0,0,0.82349
0,0,0.792657
0,0,0.789739
0,0,0.788907
0,2,0.820885
0,0,0.825781
0,3,0.798646
0,1,0.804896
0,0,0.854687
0,3,0.797865
0,0,0.786719
0,0,0.784323
0,0,0.849688
0,1,0.7925
0,0,0.799427
2,0,0.783646
0,0,0.864896
2,2,0.794062
0,0,0.797188
0,0,0.798541
0,0,0.819011
0,0,0.794063
0,0,0.803802
0,0,0.789167
0,0,0.831667
0,0,0.796042
0,0,0.791927
0,0,0.802969
0,0,0.83151
2,2,0.790156
0,0,0.795573
0,0,0.785365
0,0,0.822188
0,0,0.796459
0,0,0.852917
0,0,0.792448
0,1,0.857708
0,0,0.79474
1,1,0.782084
0,0,0.79151
0,0,0.861719
0,0,0.795573
0,0,0.788854
0,0,0.789427
0,1,0.824375
0,0,0.785365
0,3,0.797709
0,0,0.788438
0,0,0.841407
0,0,0.780156
0,0,0.791146
0,0,0.790625
0,0,0.788645
0,0,0.830521
0,0,0.788021
2,2,0.785625
0,0,0.778646
0,0,0.829531
0,0,0.780781
0,0,0.78073
0,0,0.786666
0,3,0.810416
0,0,0.790417
0,0,0.779219
0,0,0.823646
0,0,0.838125
0,0,0.791563
2,2,0.788438
0,0,0.782864
0,0,0.803698
0,0,0.79276
0,0,0.779427
0,0,0.776666
0,0,0.828594
3,3,0.810105
0,3,0.811614
0,0,0.786875
0,0,0.836875
0,0,0.786198
0,0,0.800261
0,0,0.792969
0,0,0.805573
0,0,0.783021
0,0,0.791563
0,0,0.793021
0,0,0.83474
0,0,0.805104
2,2,0.790053
0,0,0.790833
0,0,0.836979
0,0,0.80099
0,0,0.80401
2,2,0.806927
0,0,0.788646
0,0,0.922864
0,0,0.79224
0,0,0.788698
0,0,0.857032
0,0,0.800885
0,0,0.794323
2,2,0.785834
0,1,0.790209
0,0,0.815104
0,0,0.79474
0,0,0.785833
0,0,0.793333
0,0,0.830886
0,0,0.788177
0,0,0.790678
0,0,0.799583
0,1,0.846407
0,0,0.788646
0,0,0.786094
0,0,0.788437
0,0,0.851771
0,0,0.791771
0,0,0.7875
0,0,0.782865
2,2,0.833802
0,0,0.785053
0,0,0.780157
0,0,0.807761
0,0,0.847709
0,0,0.787187
0,0,0.850833
0,0,0.798542
0,0,0.820677
0,0,0.791354
0,0,0.797448
0,0,0.785625
0,0,0.810156
0,0,0.790104
0,0,0.780834
3,0,0.78
0,0,0.825469
0,0,0.784739
2,2,0.779844
2,2,0.779687
0,0,0.881719
0,0,0.784688
0,0,0.7875
0,0,0.788334
0,0,0.825157
0,0,0.785261
0,3,0.790053
0,0,0.783489
0,0,0.781667
0,0,0.849739
0,0,0.793646
0,0,0.784844
0,1,0.793594
2,2,0.816302
0,0,0.775886
2,2,0.796823
0,0,0.843542
0,0,0.821511
0,0,0.79151
0,0,0.78901
0,0,0.789792
0,0,0.848385
0,0,0.788177
0,0,0.790156
0,0,0.785156
2,2,0.843437
0,0,0.789323
0,0,0.787343
0,0,0.785469
0,0,0.84125
0,0,0.80599
2,2,0.797656
0,0,0.789011
0,0,0.836823
0,0,0.785209
0,0,0.786406
0,0,0.836615
0,0,0.813906
0,0,0.80599
0,0,1.030677
0,0,0.790989
0,0,0.837135
0,0,0.78474
0,0,0.783178
0,0,0.793906
0,0,0.871354
0,0,0.791563
0,0,0.791354
0,0,0.78349
0,0,0.840468
0,0,0.792188
0,0,0.784948
0,0,0.793437
0,0,0.810729
0,0,0.785053
0,0,0.782552
0,0,0.782916
0,0,0.82526
2,2,0.783698
3,3,0.788229
1,0,0.784688
0,0,0.816718
0,0,0.787552
0,0,0.78125
0,0,0.787188
0,0,0.859063
0,0,0.783021
0,0,0.788333
0,0,0.794427
2,2,0.785833
0,0,0.828646
0,0,0.792448
0,0,0.795053
0,0,0.784479
0,0,0.850104
0,0,0.824166
0,0,0.804479
2,3,0.797605
0,0,0.8475
2,2,0.801407
0,0,0.794323
1,0,0.793855
1,1,0.846303
0,0,0.789062
2,2,0.796667
0,1,0.7875
2,2,0.820886
0,1,0.788751
0,0,0.786407
1,1,0.787761
0,0,0.82948
0,0,0.803125
0,0,0.786094
0,0,0.797396
0,0,0.843907
0,0,0.794011
0,0,0.778177
0,1,0.795312
0,0,0.848385
0,0,0.79448
0,0,0.789323
0,3,0.783073
0,0,0.842656
0,0,0.796406
0,0,0.798282
0,1,0.840469
0,0,0.84401
0,0,0.79974
0,0,0.793906
0,0,0.781146
0,0,0.822292
2,2,0.780834
0,0,0.767448
0,0,0.790364
0,0,0.814167
0,0,0.785
0,0,0.773073
0,0,0.785104
0,0,0.830729
0,0,0.789844
2,2,0.790625
0,3,0.782032
0,0,0.816407
0,0,0.874427
0,1,0.800938
0,0,0.785625
0,0,0.783541
0,0,0.832031
0,0,0.783698
0,3,0.784948
0,0,0.790834
0,0,0.848907
0,0,0.783438
0,0,0.788958
2,2,0.796511
0,0,0.880313
0,0,0.806719
0,0,0.78948
0,0,0.783125
0,0,0.818698
0,0,0.791927
0,1,0.788333
0,0,0.789531
0,0,0.849844
1,0,0.792188
2,2,0.789115
0,1,0.780468
0,0,0.881563
0,0,0.788489
0,0,0.789532
0,0,0.785104
0,0,0.817605
0,0,0.783959
0,0,0.785417
0,1,0.787395
0,0,0.823021
0,0,0.794271
0,0,0.786875
0,0,0.788541
0,0,0.822865
0,0,0.785938
0,0,0.793073
0,0,0.78651
0,0,0.820521
0,0,0.796666
0,0,0.851459
0,0,0.79349
0,0,0.820469
0,0,0.797552
0,0,0.790677
0,0,0.802396
0,0,0.868803
0,0,0.806511
0,0,0.834479
0,0,0.81474
0,0,0.855989
0,0,0.791042
0,0,0.781666
0,1,0.78573
0,0,0.837292
0,0,0.790989
0,0,0.79823
0,0,0.788646
0,0,0.779896
0,0,0.81375
0,0,0.787552
0,0,0.78323
0,0,0.785678
0,3,0.825209
0,0,0.787135
0,0,0.785104
0,0,0.764739
0,0,0.821823
0,0,0.793438
1,1,0.786355
0,0,0.842812
0,0,0.859063
1,1,0.791094
0,0,0.787031
0,0,0.784583
0,0,0.82026
0,0,0.780364
0,3,0.806198
0,0,0.787604
0,3,0.822708
0,3,0.778906
0,0,0.77948
0,0,0.782395
1,0,0.812448
0,0,0.786562
0,0,0.780156
0,2,0.78125
0,1,0.818073
0,0,0.78625
0,0,0.785417
0,0,0.786718
0,3,0.845678
0,0,0.808125
0,0,0.812344
0,0,0.78302
0,0,0.834166
0,0,0.790573
0,0,0.805469
0,0,0.787969
0,0,0.892135
0,0,0.786198
0,0,0.793177
0,0,0.790209
0,0,0.789114
0,0,0.825573
0,0,0.787865
0,0,0.794219
0,3,0.785313
0,0,0.817917
1,0,0.785261
0,0,0.781875
0,0,0.789166
0,0,0.818802
0,0,0.782136
2,3,0.78625
0,0,0.783125
0,0,0.828125
0,0,0.783229
0,0,0.789114
1,0,0.790052
0,0,0.852292
0,1,0.784636
0,1,0.783959
0,0,0.779375
0,0,0.804844
0,0,0.784583
0,0,0.779948
0,0,0.781198
0,0,0.880364
0,0,0.832656
0,0,0.797291
0,0,0.787604
0,0,0.811927
0,0,0.781615
0,0,0.779532
0,1,0.782552
2,2,0.797552
0,0,0.785365
0,0,0.797657
0,0,0.786823
2,2,0.78224
2,2,0.865157
0,0,0.795156
0,0,0.784479
0,0,0.787448
0,0,0.847448
0,0,0.78901
0,0,0.785104
0,0,0.790313
0,0,0.821615
0,0,0.77875
0,0,0.778958
0,0,0.783073
0,0,0.826354
0,0,0.778385
0,0,0.785313
0,0,0.789114
0,0,0.800937
0,0,0.776094
2,2,0.811823
0,0,0.779479
0,0,0.820937
0,0,0.782343
0,0,0.780833
0,1,0.777031
0,0,0.811562
0,0,0.782344
0,0,0.779375
0,0,0.789427
0,0,0.841979
0,0,0.791771
0,0,0.785053
0,0,0.78526
0,0,0.783073
0,0,0.793333
0,0,0.781667
0,0,0.781094
0,0,0.789115
0,0,0.831927
0,0,0.803854
0,0,0.788281
0,0,0.788802
2,2,0.834063
0,0,0.78875
0,0,0.797396
0,2,0.809219
0,0,0.836771
0,0,0.791979
0,0,0.778751
0,0,0.829636
0,0,0.854062
0,0,0.787604
0,0,0.787343
0,0,0.791562
0,2,0.855
0,0,0.791459
0,0,0.782709
0,0,0.780156
0,0,0.818021
0,0,0.795937
0,0,0.787084
0,0,0.782292
0,0,0.827552
0,0,0.78375
0,0,0.778021
0,0,0.783646
0,0,0.813177
0,0,0.794323
0,0,0.780677
0,1,0.782083
0,0,0.813281
0,0,0.780937
0,0,0.779271
0,0,0.801041
0,3,0.785365
0,0,0.825573
0,0,0.782396
0,3,0.7775
0,0,0.784428
0,0,0.882813
0,0,0.791771
0,3,0.781355
0,0,0.794219
0,0,0.83177
0,0,0.789791
0,0,0.790417
2,2,0.787292
0,0,0.835
0,0,0.797292
0,0,0.791719
0,0,0.786094
0,0,0.82651
0,0,0.800834
0,0,0.781666
0,0,0.789532
0,0,0.818177
0,0,0.782448
0,1,0.780937
0,0,0.792239
0,0,0.839219
0,0,0.789479
2,2,0.791719
1,0,0.786666
0,0,0.861563
0,0,0.783177
0,0,0.782657
0,0,0.7925
0,0,0.808594
0,2,0.842864
0,0,0.790521
0,0,0.799062
0,1,0.82599
0,0,0.78224
0,0,0.784635
0,0,0.794271
0,0,0.81349
0,0,0.781667
0,0,0.783489
0,0,0.779271
2,2,0.785886
0,0,0.8075
0,0,0.78901
0,0,0.78375
2,2,0.789062
0,0,0.852239
1,1,0.789427
0,0,0.786927
0,0,0.781042
0,0,0.857084
0,0,0.786771
0,0,0.778802
0,0,0.78
0,0,0.816094
0,0,0.77974
1,1,0.779375
0,0,0.782552
0,0,0.827136
0,0,0.779739
0,0,0.810521
0,1,0.814219
0,0,0.845573
0,0,0.79125
0,0,0.786094
0,0,0.793542
0,0,0.834792
0,0,0.789115
0,0,0.780833
0,0,0.778594
0,0,0.827396
0,0,0.781979
0,0,0.783281
0,0,0.783646
0,0,0.847031
0,0,0.78823
0,0,0.795729
0,0,0.793385
3,3,0.810313
0,0,0.784427
0,0,0.78375
0,0,0.778177
0,0,0.78375
0,0,0.826562
0,0,0.784687
0,0,0.774532
0,0,0.773959
0,0,0.839271
0,0,0.780313
0,0,0.77901
0,0,0.85698
0,0,0.81625
0,0,0.778906
0,0,0.779792
0,3,0.817031
0,0,0.841719
2,2,0.788386
0,0,1.250104
0,0,0.857291
0,0,0.806771
0,0,0.831198
0,0,0.879896
0,0,0.843437
0,0,0.778646
0,0,0.779792
1,0,0.777448
0,0,0.832812
0,0,0.798958
0,0,0.78573
0,0,0.790938
0,0,0.84677
0,0,0.789948
0,3,0.784636
0,0,0.789635
0,0,0.813907
0,0,0.789427
0,0,0.789636
0,0,0.787969
0,0,0.842031
0,0,0.790678
0,0,0.868958
0,0,0.779375
0,0,0.856563
0,0,0.799323
0,0,0.775729
0,0,0.777395
0,1,0.845
0,0,0.779792
0,0,0.783281
0,0,0.775937
0,1,0.775625
0,0,0.821771
0,1,0.779583
0,0,0.774219
0,2,0.773854
0,0,0.82026
0,0,0.775782
0,0,0.791667
0,0,0.790573
0,0,0.845573
0,0,0.785729
0,0,0.785521
0,0,0.78375
1,0,0.83526
0,0,0.78099
0,0,0.782031
0,0,0.77875
0,3,0.837396
0,0,0.782291
0,0,0.773906
0,0,0.827917
0,0,0.806563
0,0,0.79177
0,0,0.798854
0,0,0.786198
0,0,0.838542
0,0,0.777969
2,2,0.78573
0,1,0.783281
0,0,0.827865
0,0,0.784636
0,0,0.804844
0,0,0.816303
0,0,0.819219
2,2,0.794635
0,0,0.796042
0,0,0.794271
0,0,0.787396
0,0,0.797969
0,3,0.780573
0,0,0.787865
0,0,0.786614
0,0,0.849948
0,0,0.782136
0,0,0.786407
0,0,0.776146
0,0,0.806406
0,0,0.783646
0,0,0.785833
0,3,0.837969
0,0,0.85125
0,0,0.796146
0,0,0.781771
0,0,0.778229
0,0,0.801145
0,0,0.786615
0,0,0.791771
0,0,0.786511
0,1,0.82526
2,2,0.779948
0,0,0.772656
0,0,0.783542
0,0,0.822604
0,0,0.790156
0,0,0.785208
1,1,0.790001
2,2,0.855
0,0,0.792605
2,2,0.793385
0,0,0.782136
0,0,0.839167
0,0,0.798803
0,0,0.782709
0,0,0.785
0,0,0.827865
0,0,0.783854
0,0,0.78651
1,1,0.778906
0,0,0.781719
0,0,0.876094
0,0,0.787865
0,0,0.776615
2,2,0.767656
0,0,0.808854
0,0,0.784948
0,0,0.782604
0,0,0.781354
0,1,0.840052
0,2,0.784532
0,0,0.78276
0,0,0.78724
0,1,0.844896
0,0,0.782969
0,0,0.771667
1,0,0.780416
0,0,0.808698
0,0,0.778125
0,0,0.785729
0,0,0.786042
0,0,0.826771
0,0,0.787917
0,0,0.784532
0,0,0.790052
0,0,0.814427
0,0,0.787031
0,0,0.785208
0,0,0.785417
0,0,0.813646
0,0,0.787552
0,0,0.815937
0,0,0.788385
0,0,0.831667
0,0,0.788907
0,0,0.787188
0,0,0.779687
0,3,0.78125
0,0,0.820052
0,0,0.807656
0,0,0.788854
0,0,0.801094
0,0,0.834479
0,0,0.787709
0,0,0.784271
0,0,0.799896
0,0,0.839844
1,0,0.779843
0,0,0.780885
0,0,0.781094
0,0,0.838542
0,0,0.788854
0,0,0.779844
0,0,0.788177
0,0,0.810417
0,0,0.783855
0,0,0.793489
0,1,0.786927
0,0,0.83375
0,0,0.798802
0,0,0.791146
0,0,0.862708
2,2,0.867761
0,3,0.79651
0,0,0.783178
2,3,0.784375
0,0,0.814166
0,0,0.777656
0,0,0.789166
0,0,0.791407
0,0,0.835573
0,0,0.783542
0,0,0.786198
0,0,0.786197
0,0,0.822917
0,0,0.79
0,0,0.7825
0,0,0.786667
1,0,0.788541
0,0,0.814167
0,0,0.793906
0,0,0.783229
0,0,0.783021
0,0,0.840156
0,0,0.782396
0,0,0.782604
0,0,0.801146
0,0,0.963021
0,0,0.813229
0,0,0.789323
0,0,0.795885
0,0,0.878021
0,0,0.781458
0,0,0.780417
0,0,0.795417
0,0,0.840782
0,0,0.784479
0,0,0.785781
0,0,0.782656
0,0,0.820677
0,0,0.791302
0,0,0.787239
0,0,0.795886
0,0,0.820365
0,0,0.782656
0,0,0.788906
0,0,0.788594
0,0,0.832865
0,0,0.790782
0,0,0.785104
0,0,0.785573
0,1,0.8375
0,0,0.789791
0,0,0.792188
0,0,0.797448
0,0,0.808281
0,0,0.790312
0,0,0.771719
0,3,0.791094
0,0,0.830729
0,0,0.791563
2,2,0.839323
0,0,0.7875
0,0,0.831823
0,0,0.790209
0,0,0.782239
0,0,0.787604
0,0,0.781615
0,0,0.809948
0,0,0.782083
0,0,0.79026
0,0,0.792864
0,0,0.840833
0,0,0.805678
0,0,0.799791
0,0,0.795312
0,0,0.885104
0,0,0.799896
0,0,0.788542
0,0,0.798802
0,0,0.815312
0,0,0.788802
0,3,0.79276
2,2,0.782344
0,0,0.829011
0,0,0.794271
0,0,0.792448
0,0,0.787188
0,0,0.814636
0,0,0.788958
0,0,0.844219
0,0,0.793021
0,0,0.827708
0,0,0.787969
0,1,0.78599
0,0,0.783334
0,0,0.825052
0,1,0.789636
0,0,0.794114
0,0,0.78875
0,0,0.863125
0,0,0.79323
0,0,0.790365
0,0,0.784636
0,0,0.81698
0,0,0.792032
0,0,0.786458
2,2,0.784844
0,0,0.815417
0,0,0.786875
0,0,0.783646
0,0,0.77875
0,0,0.825989
0,0,0.784427
0,0,0.798334
0,3,0.785052
0,0,0.789375
0,0,0.809323
0,0,0.788594
0,0,0.79224
0,0,0.83776
0,0,0.861979
0,0,0.785469
0,0,0.785104
0,1,0.779011
0,0,0.868542
0,0,0.788906
0,0,0.795313
0,0,0.775209
2,2,0.822604
0,0,0.788281
0,0,0.790469
0,0,0.787865
0,4,0.835729
0,0,0.792552
0,0,0.787657
0,0,0.787917
0,0,0.832761
2,2,0.798489
0,0,0.784791
0,0,0.782448
0,0,0.812292
0,0,0.781563
0,0,0.794792
0,0,0.784948
2,2,0.850209
3,0,0.782812
0,0,0.789792
0,0,0.781406
0,0,0.834583
0,2,0.854219
0,0,0.787916
0,0,0.785312
0,0,0.826198
0,0,0.784114
0,3,0.788541
0,0,0.783854
2,2,0.838698
2,2,0.791771
0,0,0.782187
0,0,0.791875
0,0,0.783698
0,0,0.821146
0,0,0.791458
0,3,0.792448
1,0,0.786979
0,1,0.850417
0,0,0.802708
0,0,0.793438
3,0,0.783333
2,2,0.836771
0,0,0.770053
0,0,0.780521
0,0,0.780729
0,0,0.848646
0,0,0.790365
2,2,0.782812
0,0,0.797344
0,0,0.845105
0,2,0.785156
0,0,0.856146
0,0,0.788541
0,0,0.835052
0,0,0.780885
0,0,0.790001
0,0,0.781667
0,0,0.824063
0,0,0.79349
0,0,0.784427
0,0,0.7825
0,0,0.816407
0,0,0.784062
0,0,0.78323
0,0,0.781875
0,0,0.831406
0,0,0.785156
0,0,0.78151
0,0,0.793021
0,0,0.849739
2,2,0.791719
0,0,0.781979
0,0,0.813855
0,0,0.789635
0,0,0.795729
0,0,0.78599
0,3,0.793021
0,0,0.787291
2,2,0.825521
0,0,0.785261
0,0,0.784844
0,0,0.856302
0,0,0.821563
0,0,0.793854
0,0,0.80401
1,1,0.787917
0,0,0.824948
0,0,0.804114
0,0,0.784323
0,0,0.789739
0,0,0.841771
0,1,0.792083
0,0,0.779427
0,0,0.785937
0,0,0.857813
0,0,0.7825
0,0,0.787448
0,0,0.783698
0,0,0.832448
0,0,0.784271
2,2,0.790885
0,0,0.798698
0,0,0.82776
0,0,0.790782
0,0,0.78802
0,0,0.787084
0,0,0.818281
0,0,0.790521
0,0,0.785781
0,0,0.78651
1,1,0.870365
0,0,0.792865
0,0,0.784375
0,0,0.790261
0,0,0.837656
2,3,0.786458
0,0,0.793125
0,0,0.784375
0,0,0.835364
0,1,0.788854
0,0,0.789791
0,0,0.782916
0,0,0.787917
2,2,0.811615
0,0,0.79099
0,0,0.787188
0,0,0.791354
0,1,0.828959
0,0,0.786146
0,0,0.786094
0,0,0.805625
0,1,0.833958
0,0,0.775469
0,0,0.776875
0,0,0.772917
2,2,0.814323
0,1,0.78599
0,0,0.791771
0,0,0.780261
0,0,0.84599
0,0,0.827084
0,0,0.784011
0,0,0.785053
0,0,0.858333
0,3,0.803021
0,0,0.782865
0,0,0.783698
0,0,0.808594
0,0,0.791458
0,0,0.781511
0,0,0.787812
0,0,0.831198
0,0,0.787187
0,0,0.781093
0,0,0.780885
0,0,0.806354
0,3,0.786719
0,0,0.786927
0,0,0.795208
0,0,0.789844
0,0,0.810365
0,0,0.764635
0,0,0.782188
0,0,0.783281
0,1,0.828177
0,0,0.786667
0,0,0.786042
0,0,0.78375
0,0,0.857395
0,0,0.786042
1,1,0.832083
0,0,0.789427
0,0,0.820781
0,0,0.791875
3,3,0.784531
0,0,0.787344
0,0,0.823437
0,0,0.783542
0,0,0.805208
0,0,0.784531
0,0,0.84448
0,0,0.782709
0,0,0.785312
0,0,0.782344
0,0,0.813386
0,0,0.790625
0,0,0.783698
0,0,0.778125
0,0,0.821771
2,0,0.784948
0,0,0.788073
0,0,0.785312
0,0,0.849739
0,0,0.791354
0,0,0.781407
0,0,0.78599
0,0,0.782708
0,0,0.804948
0,0,0.787709
0,0,0.778437
0,0,0.841719
0,0,0.841771
0,0,0.797656
0,0,0.780677
0,0,0.781614
0,0,0.815521
0,3,0.783541
0,0,0.783855
2,2,0.789376
0,0,0.812187
0,0,0.788959
0,0,0.788907
0,0,0.783906
0,0,0.829948
0,0,0.784531
0,0,0.780677
0,0,0.798073
2,2,0.850313
2,2,0.78599
1,1,0.787969
0,0,0.783906
2,2,0.837136
0,0,0.784479
0,0,0.785
0,0,0.808646
0,0,0.845885
0,0,0.790625
0,0,0.799688
0,0,0.789583
0,0,0.821458
0,0,0.848125
0,0,0.797344
0,0,0.79125
0,3,0.817032
0,0,0.78599
0,0,0.789011
0,0,0.781615
0,0,0.785677
1,0,0.786459
2,2,0.786875
0,0,0.779115
0,0,0.781562
0,0,0.859011
0,0,0.784323
0,0,0.782292
0,0,0.792812
0,0,0.830833
0,0,0.782605
0,0,0.777657
0,0,0.776563
0,0,0.83125
0,0,0.784479
0,0,0.765625
0,0,0.792344
0,0,0.835937
0,0,0.792187
2,2,0.781302
0,0,0.788698
2,2,0.818386
0,0,0.783854
0,0,0.853386
0,0,0.791563
0,4,0.852761
0,0,0.793802
0,0,0.786093
0,0,0.781198
2,2,0.85375
0,0,0.790886
0,0,0.782969
1,1,0.780678
0,0,0.803802
0,1,0.804531
0,1,0.815521
0,3,0.786875
0,0,0.857292
2,2,0.787657
2,2,0.80151
0,0,0.773906
2,2,0.806198
0,0,0.795208
0,0,0.79224
0,0,0.781927
0,0,0.787865
0,0,0.825729
0,0,0.777291
0,0,0.775573
0,0,0.777969
0,0,0.820573
0,0,0.783437
0,0,0.850677
3,0,0.778802
0,0,0.861511
0,0,0.779114
0,0,0.775573
0,0,0.779896
0,0,0.810625
0,0,0.776146
0,2,0.775625
2,2,0.775886
0,0,0.833281
0,0,0.779219
0,0,0.78875
0,0,0.778333
0,1,0.825521
2,2,0.777916
1,0,0.774844
0,0,0.775521
0,0,0.7975
0,0,0.785678
0,2,0.775156
0,0,0.77625
0,0,0.790417
0,0,0.828594
0,1,0.784584
0,0,0.781042
0,0,0.786615
0,0,0.85823
0,0,0.794011
0,0,0.795677
0,0,0.838125
0,0,0.834427
0,0,0.80099
0,0,0.792396
2,2,0.785208
0,0,0.838386
0,0,0.783178
0,0,0.786094
0,0,0.784166
0,2,0.823333
0,0,0.792448
0,0,0.790573
2,2,0.779271
0,0,0.828021
0,1,0.778385
0,0,0.777083
0,0,0.787813
3,0,0.813125
0,1,0.775573
0,0,0.778906
0,0,0.781562
0,0,0.854479
0,0,0.78802
0,0,0.782395
0,0,0.783229
0,0,0.817604
0,0,0.786615
0,0,0.793177
0,0,0.781771
0,0,0.819479
2,2,0.828906
0,0,0.784896
0,0,0.786823
0,0,0.78625
0,0,0.802812
2,2,0.787188
0,0,0.783594
0,0,0.781875
0,0,0.829896
0,0,0.779739
0,0,0.778855
0,0,0.788281
2,2,0.827969
0,0,0.787292
0,0,0.781198
0,0,0.783646
0,0,0.866563
0,0,0.804583
0,0,0.795521
0,0,0.784896
0,0,0.820677
0,0,0.785105
0,0,0.780677
0,0,0.783021
0,0,0.827396
0,0,0.791927
0,0,0.798959
0,0,0.79224
0,0,0.82026
0,0,0.788802
0,0,0.822448
0,0,0.788386
0,0,0.803281
1,0,0.777812
0,0,0.787188
0,0,0.78526
0,0,0.833021
0,0,0.795365
0,0,0.788177
0,0,0.780729
0,0,0.794219
0,0,0.865209
0,0,0.788541
2,2,0.779948
0,0,0.790677
0,0,0.807187
0,0,0.785573
0,0,0.785885
0,1,0.777396
0,0,0.832917
0,0,0.786093
0,0,0.791667
0,0,0.781823
0,0,0.826042
0,0,0.793802
0,0,0.783646
0,0,0.784375
0,0,0.837708
0,0,0.784375
0,0,0.782083
0,0,0.829844
0,0,0.830833
0,1,0.783594
0,0,0.797864
2,2,0.802552
0,0,0.841875
0,0,0.781928
0,0,0.786927
0,0,0.787865
0,0,0.814219
0,0,0.7825
0,1,0.789792
0,0,0.787032
0,0,0.824687
0,3,0.78026
0,0,0.782135
0,0,0.783802
2,2,0.823281
0,0,0.786771
0,0,0.784688
0,0,0.810677
0,0,0.787761
0,0,0.785
0,0,0.803438
0,0,0.777864
0,0,0.779167
0,0,0.828281
0,0,0.793906
0,0,0.781875
0,0,0.829687
0,0,0.871562
0,0,0.806041
0,0,0.786979
0,0,0.789063
0,0,0.845625
0,0,0.789219
0,0,0.792708
0,0,0.783333
0,0,0.839844
0,0,0.789375
0,0,0.791094
0,0,0.782292
0,0,0.825104
0,0,0.788386
0,0,0.78724
0,0,0.808802
0,0,0.815052
0,0,0.784531
0,0,0.786667
2,2,0.789584
0,0,0.835886
0,0,0.797031
0,0,0.787657
0,0,0.794062
0,0,0.85276
0,0,0.786719
0,0,0.802813
0,0,0.78526
0,0,0.831458
0,0,0.822239
0,0,0.788854
0,1,0.7875
0,0,0.822708
2,2,0.786823
2,2,0.787865
0,1,0.791458
0,0,0.780625
0,0,0.801354
0,0,0.784896
0,0,0.794271
0,0,0.785885
0,0,0.800468
0,0,0.778855
0,3,0.78151
0,0,0.785052
0,0,0.821459
0,0,0.791771
0,0,0.781458
0,3,0.783177
0,0,0.848646
0,0,0.792291
0,0,0.776927
0,0,0.806146
0,0,0.823854
0,0,0.78625
0,0,0.777032
0,0,0.791771
0,0,0.821927
0,0,0.780365
0,0,0.836198
0,0,0.784687
0,0,0.826459
0,0,0.779687
0,0,0.785625
0,0,0.784428
0,0,0.81224
1,1,0.796406
0,0,0.803333
0,0,0.80552
0,0,0.859844
0,0,0.786146
1,1,0.783386
2,3,0.793958
0,0,0.850105
0,1,0.7925
0,0,0.785209
2,2,0.784323
0,0,0.780781
0,0,0.808854
2,2,0.784271
0,0,0.796771
0,0,0.778698
0,0,0.837292
0,0,0.781042
0,0,0.784844
0,0,0.789584
0,0,0.803385
0,0,0.790677
0,0,0.784323
0,0,0.820156
0,3,0.817188
0,0,0.800469
0,0,0.776407
0,0,0.775208
0,0,0.817813
0,0,0.79
0,0,0.783542
0,0,0.777656
2,2,0.832865
0,0,0.779948
0,0,0.784167
2,2,0.788177
0,3,0.801458
0,0,0.78026
0,3,0.791771
0,0,0.785104
0,0,0.782969
0,0,0.792031
0,0,0.789532
0,0,0.7975
0,0,0.783854
0,2,0.831303
0,1,0.78474
0,0,0.788177
0,0,0.806876
0,0,0.847083
0,0,0.788958
1,1,0.790833
0,0,0.778855
0,0,0.890781
0,0,0.779948
2,2,0.785938
0,0,0.78224
1,1,0.871927
0,0,0.792135
0,0,0.78276
0,1,0.787031
0,0,0.814844
0,3,0.784271
0,0,0.787813
0,0,0.787552
0,0,0.823021
0,0,0.786927
0,0,0.789271
0,0,0.789688
0,0,0.811145
0,0,0.780365
0,0,0.77849
0,0,0.786511
2,2,0.804115
0,0,0.775782
0,0,0.78151
0,0,0.781459
0,3,0.77698
2,2,0.81901
0,0,0.779792
0,0,0.782917
0,0,0.782813
0,0,0.823802
0,2,0.784584
0,0,0.788125
3,3,0.785729
0,0,0.839635
0,0,0.781615
0,0,0.785677
0,0,0.785573
0,1,0.827812
0,0,0.783959
0,0,0.781146
1,1,0.784375
0,0,0.806094
0,0,0.799687
0,0,0.79823
0,0,0.790781
0,0,0.813489
0,0,0.784115
0,0,0.783282
0,0,0.792656
2,2,0.829843
0,0,0.794114
0,0,0.783542
0,0,0.785938
3,3,0.860677
0,0,0.785833
0,0,0.779323
0,1,0.782031
0,0,0.820677
0,0,0.782395
2,2,0.834427
0,0,0.782865
0,0,0.782708
0,0,0.84177
0,0,0.784635
0,0,0.789114
0,0,0.782812
0,0,0.811406
1,0,0.781146
0,0,0.779115
0,0,0.777708
3,3,0.809635
0,0,0.781198
0,0,0.778073
0,0,0.783958
0,0,0.83026
0,0,0.779791
0,0,0.788334
0,0,0.80375
0,0,0.831511
2,2,0.787292
0,0,0.780834
0,0,0.777604
0,0,0.805312
1,1,0.786303
0,2,0.791458
2,2,0.781459
0,0,0.82401
2,2,0.781406
0,0,0.777083
0,0,0.83401
0,0,0.855
0,0,0.807604
0,0,0.779948
0,1,0.790886
0,0,0.830208
0,0,0.792657
2,2,0.786511
0,0,0.784115
0,0,0.78375
0,0,0.809167
0,0,0.776875
0,0,0.785104
0,0,0.776979
0,0,0.86224
0,0,0.7875
0,0,0.784219
0,0,0.792656
0,0,0.834427
0,3,0.779635
0,3,0.783958
2,2,0.779271
0,0,0.829323
0,0,0.779011
0,0,0.770468
0,0,0.772761
0,0,0.816406
1,2,0.782657
2,2,0.774792
0,0,0.783854
0,0,0.857969
0,0,0.785208
0,0,0.776771
0,0,0.783073
0,0,0.812292
0,0,0.777865
0,0,0.823646
0,0,0.786823
0,0,0.860364
3,0,0.788541
0,0,0.78323
2,2,0.779792
0,0,0.789062
0,0,0.816719
2,2,0.781979
0,0,0.781198
0,0,0.79026
0,0,0.848698
0,0,0.814583
0,0,0.798593
0,0,0.86125
2,2,0.789219
0,0,0.781354
2,3,0.785052
0,0,0.800104
0,0,0.780417
0,2,0.786458
0,0,0.780677
0,0,0.778177
0,0,0.815
0,0,0.941875
0,0,0.778438
0,0,0.780157
2,2,0.841406
0,0,0.789011
0,0,0.77901
0,0,0.783907
0,0,0.828021
0,0,0.795208
1,0,0.778125
0,0,0.77875
0,0,0.815938
0,0,0.787031
0,0,0.783906
0,0,0.775885
0,0,0.808959
0,1,0.78151
0,0,0.779844
0,0,0.786614
0,0,0.835938
0,0,0.789895
0,0,0.790052
0,3,0.795572
0,0,0.84099
0,0,0.784323
0,0,0.79401
2,2,0.786093
0,0,0.845833
0,0,0.786614
0,0,0.785105
2,2,0.840209
0,0,0.813229
0,0,0.780156
0,0,0.780573
0,0,0.797604
0,0,0.806302
0,0,0.800208
0,0,0.804115
0,0,0.785573
0,0,0.781251
0,0,0.825886
0,0,0.784584
0,0,0.784427
0,0,0.797656
0,0,0.82349
0,0,0.786354
1,0,0.785677
0,0,0.790157
0,0,0.849583
0,0,0.784792
0,0,0.784635
0,0,0.798073
0,0,0.856458
0,0,0.781771
0,0,0.786562
0,1,0.788125
0,0,0.827969
0,0,0.803855
1,0,0.784688
0,0,0.851459
0,0,0.834635
0,0,0.784323
0,0,0.782656
0,0,0.774583
0,0,0.833177
0,0,0.78349
0,0,0.788177
0,1,0.787865
0,0,0.829636
0,0,0.787709
0,0,0.788073
0,0,0.797812
0,0,0.821198
0,0,0.783906
0,0,0.78599
0,0,0.784948
0,0,0.783542
0,0,0.797917
0,0,0.7875
0,0,0.780938
0,0,0.782031
0,0,0.827083
0,0,0.798698
3,0,0.788646
0,0,0.791146
0,0,0.870417
0,0,0.794011
0,0,0.788333
0,0,0.788542
0,0,0.906511
0,0,0.786406
0,3,0.786615
0,0,0.785313
2,2,0.817396
0,0,0.782188
0,0,0.79125
0,0,0.791718
0,0,0.827969
0,0,0.798698
2,3,0.782969
0,0,0.793646
0,0,0.854375
0,0,0.78901
0,0,0.786458
0,0,0.776875
0,0,0.813646
0,0,0.78849
0,0,0.794063
0,0,0.780938
0,0,0.828698
0,1,0.784896
0,0,0.779688
2,1,0.786302
0,0,0.810104
0,3,0.785833
0,0,0.8
0,0,0.787604
2,2,0.802656
0,0,0.786875
0,0,0.835885
0,0,0.784011
0,0,0.784063
0,0,0.827083
0,0,0.781094
0,0,0.783907
2,2,0.784792
0,0,0.832709
0,0,0.792864
0,0,0.806302
0,0,0.803594
0,0,0.837032
2,2,0.783855
0,3,0.782396
0,0,0.787552
0,0,0.823542
0,0,0.790052
0,0,0.783333
0,0,0.785365
0,0,0.808386
0,0,0.786042
0,0,0.784323
0,0,0.778177
0,0,0.793958
0,0,0.785885
0,0,0.783021
2,2,0.789011
0,0,0.830938
0,0,0.780417
0,0,0.785573
0,0,0.842291
0,0,0.847239
0,0,0.79224
0,1,0.784635
0,1,0.786875
0,0,0.808698
3,0,0.791614
0,0,0.782657
0,0,0.784219
0,0,0.787969
0,0,0.829792
0,2,0.794584
0,0,0.785625
0,0,0.784479
0,0,0.829792
0,3,0.78573
0,0,0.788698
0,3,0.79375
0,0,0.825208
0,0,0.788542
0,0,0.777917
2,2,0.778438
0,0,0.84948
0,0,0.782343
0,0,0.783438
0,0,0.786563
0,0,0.852813
0,0,0.78901
2,2,0.782708
0,0,0.778073
0,0,0.868959
0,0,0.793594
2,2,0.785
0,0,0.781355
0,0,0.837864
0,0,0.792709
0,0,0.78849
1,1,0.783281
0,0,0.835469
0,0,0.784063
0,0,0.781875
0,0,0.784948
0,0,0.824323
0,0,0.790157
0,0,0.784636
0,0,0.798229
0,0,0.783229
0,0,0.814219
0,0,0.786146
0,0,0.784115
0,0,0.779687
0,0,0.849323
0,0,0.791146
0,0,0.780937
0,0,0.779219
0,0,0.815469
0,0,0.783646
0,0,0.785886
0,0,0.783386
0,0,0.878177
0,0,0.791407
0,0,0.784635
0,0,0.784063
0,0,0.83125
0,4,0.785989
2,2,0.79276
0,0,0.790886
0,0,0.811823
2,3,0.784115
0,0,0.784375
0,0,0.7825
0,0,0.813125
0,0,0.790782
0,0,0.797396
0,0,0.802448
0,0,0.868542
0,0,0.783907
0,0,0.785
0,0,0.784636
0,0,0.806198
0,0,0.779583
0,0,0.781198
0,0,0.780782
0,0,0.778229
2,2,0.830312
0,0,0.786042
0,0,0.785521
0,0,0.785469
0,0,0.81349
0,0,0.845469
2,2,0.781719
0,0,0.792344
2,2,0.825938
0,0,0.802552
0,0,0.779427
0,0,0.776041
0,0,0.834166
0,0,0.788542
0,0,0.782604
0,0,0.783906
0,0,0.846562
0,0,0.786302
0,0,0.783698
0,0,0.782032
0,0,0.835053
0,0,0.790001
0,0,0.786979
0,1,0.784323
0,0,0.8275
0,0,0.782031
0,0,0.793021
0,0,0.784532
0,0,0.8175
0,0,0.794532
0,0,0.781771
0,0,0.785833
0,0,0.783803
0,0,0.848021
0,0,0.787708
0,0,0.832917
0,0,0.804896
0,0,0.838803
0,0,0.786094
0,1,0.788281
0,0,0.784635
0,2,0.870261
0,0,0.788594
0,0,0.795989
0,0,0.783906
3,3,0.814844
0,0,0.781823
0,0,0.789323
0,0,0.789688
0,0,0.836719
0,0,0.78224
0,0,0.782604
0,0,0.787084
0,0,0.828751
0,0,0.781823
0,0,0.797865
0,0,0.79099
0,0,0.818907
0,0,0.783646
0,0,0.791771
0,0,0.781458
0,0,0.845209
2,2,0.784167
0,0,0.794948
0,0,0.784531
0,0,0.976615
2,2,0.791979
1,0,0.784636
0,0,0.783854
2,2,0.815677
0,1,0.803125
0,0,0.782343
0,0,0.79198
0,0,0.824584
0,0,0.785677
0,0,0.781354
0,0,0.783229
0,0,0.813646
0,0,0.792864
0,0,0.78
0,0,0.786875
0,0,0.78599
0,0,0.833958
0,0,0.805625
0,0,0.80651
0,0,0.797396
0,0,0.846875
0,0,0.791614
0,0,0.785521
0,0,0.78724
0,0,0.852605
0,0,0.793906
0,0,0.791094
0,0,0.788177
0,0,0.815677
0,0,0.838802
0,0,0.787552
0,0,0.783177
0,0,0.865208
2,2,0.785469
0,0,0.779531
0,0,0.787396
0,0,0.825104
0,0,0.785208
0,0,0.793854
0,0,0.787917
0,0,0.819063
0,0,0.792135
0,0,0.784011
0,0,0.782552
0,0,0.827187
0,0,0.792604
0,0,0.786042
0,0,0.792396
2,2,0.858855
0,0,0.789687
0,0,0.784115
2,2,0.786667
2,2,0.828698
0,0,0.790261
0,0,0.788542
0,0,0.785052
0,0,0.825833
0,3,0.795
0,0,0.799792
0,1,0.831615
0,3,0.783646
0,0,0.808959
0,0,0.785
0,0,0.804115
2,3,0.799114
0,0,0.824531
0,0,0.785521
0,0,0.784584
0,0,0.784219
0,0,0.842031
0,0,0.786198
0,0,0.783438
0,0,0.790729
0,0,0.844114
0,0,0.783698
0,0,0.78875
0,0,0.778802
0,0,0.819062
0,1,0.784271
1,1,0.784323
0,0,0.793177
0,0,0.82375
0,0,0.793802
2,2,0.792292
0,0,0.791406
0,0,0.817969
0,0,1.465417
0,0,0.796979
0,0,0.88901
0,0,0.78901
0,0,0.782657
0,0,0.790261
0,0,0.842188
0,0,0.783594
0,0,0.78599
2,2,0.791094
2,2,0.843177
0,0,0.790417
0,0,0.789271
0,0,0.789636
2,2,0.785938
0,0,0.808438
0,0,0.779375
0,0,0.78302
0,0,0.784375
2,2,0.836927
0,0,0.786979
0,0,0.779323
0,1,0.776145
0,0,0.837656
1,0,0.809792
0,0,0.786354
0,0,0.788438
0,0,0.833489
0,0,0.783646
0,0,0.778386
0,0,0.780886
0,0,0.862916
0,0,0.828594
0,0,0.784635
0,0,0.78448
2,2,0.841302
0,2,0.791667
0,0,0.799636
2,2,0.789895
0,0,0.818646
0,0,0.779844
0,0,0.799115
0,0,0.794375
0,0,0.836719
0,0,0.790885
2,2,0.788646
0,0,0.775625
0,0,0.805365
0,0,0.795521
0,0,0.785313
0,0,0.784427
0,0,0.780052
0,1,0.815208
0,0,0.779531
0,0,0.785729
0,0,0.795364
0,0,0.827135
0,0,0.785104
0,0,0.789687
0,0,0.781146
0,0,0.826198
0,0,0.797031
0,0,0.81875
0,3,0.785417
0,0,0.808594
0,0,0.783594
0,0,0.787709
0,0,0.784011
0,0,0.825729
0,0,0.78349
0,0,0.79375
0,0,0.810781
2,2,0.844948
0,0,0.788333
0,0,0.789271
0,0,0.788594
2,2,0.819063
0,0,0.779791
0,0,0.783386
0,0,0.783646
0,0,0.83224
0,0,0.77948
0,0,0.789375
0,0,0.787292
0,0,0.860365
0,0,0.783281
0,0,0.787813
0,0,0.791927
0,0,0.820469
0,0,0.794011
0,0,0.789375
0,0,0.783854
0,0,0.843542
0,0,0.836406
0,0,0.780625
0,0,0.801406
0,0,0.791563
0,0,0.804167
0,0,0.780261
0,0,0.780365
0,0,0.784791
2,3,0.805521
0,1,0.794167
0,0,0.786719
0,0,0.79125
0,0,0.851823
0,0,0.7875
0,0,0.79224
0,0,0.789532
0,0,0.844583
0,2,0.786146
0,0,0.784948
0,0,0.783438
1,0,0.822135
0,0,0.785729
0,0,0.785626
0,0,0.794687
0,0,0.849844
2,0,0.798854
0,0,0.792396
0,0,0.78198
0,0,0.815678
0,0,0.850208
0,0,0.790104
0,0,0.782761
0,0,0.815312
2,2,0.782657
0,0,0.781302
0,1,0.781771
0,0,0.84526
0,0,0.794532
0,0,0.791302
0,0,0.781719
0,0,0.788489
3,3,0.870677
0,0,0.780833
2,2,0.785417
0,0,0.784167
2,2,0.818698
0,3,0.779687
0,0,0.784167
0,0,0.785989
0,0,0.820834
0,0,0.792187
0,0,0.779062
0,0,0.781354
0,0,0.826563
0,0,0.781042
0,0,0.788698
0,0,0.785208
2,2,0.812865
0,1,0.846354
0,0,0.781667
0,0,0.783281
0,0,0.858803
0,0,0.784948
0,0,0.787813
2,2,0.795312
0,0,0.858125
0,0,0.785521
2,2,0.785416
0,0,0.790833
0,0,0.815521
0,0,0.781511
0,0,0.800365
0,0,0.80151
0,1,0.842292
2,2,0.789687
0,0,0.788178
0,0,0.784271
0,0,0.876927
0,0,0.796458
2,2,0.783958
0,0,0.785364
0,0,0.835417
0,0,0.78901
0,0,0.789688
0,0,0.799218
0,0,0.786198
0,1,0.828073
0,0,0.794844
2,2,0.849011
0,0,0.782656
0,0,0.846979
0,0,0.790312
1,1,0.789531
0,0,0.795208
0,0,0.880364
1,0,0.790886
0,0,0.784531
0,0,0.781406
2,2,0.8275
0,0,0.786042
0,0,0.782083
0,1,0.783386
0,0,0.829739
0,0,0.790468
0,0,0.787969
2,3,0.788906
0,0,0.810416
0,0,0.798177
0,0,0.785157
0,0,0.782761
2,0,0.826406
0,0,0.787917
0,0,0.788802
0,0,0.79099
0,0,0.852135
0,0,0.783541
0,0,0.785209
0,0,0.784375
0,0,0.874376
0,0,0.803646
0,0,0.798646
0,0,0.787657
3,0,0.83698
0,1,0.782031
2,2,0.782917
2,2,0.779792
0,0,0.812031
0,1,0.780312
0,0,0.781927
0,0,0.777032
0,0,0.777031
0,0,0.809896
0,0,0.784532
0,0,0.783646
0,0,0.775105
0,0,0.836198
0,0,0.775104
0,0,0.779792
0,0,0.777396
0,0,0.861927
1,0,0.791094
0,0,0.777448
0,0,0.78125
0,0,0.827656
0,0,1.134219
0,0,1.502917
2,2,1.161875
0,0,0.998698
2,2,1.005834
0,0,1.075157
0,0,1.017657
0,0,1.003854
0,0,1.144739
0,0,1.013698
0,0,0.996928
0,0,1.128958
0,0,0.996302
0,0,0.966823
0,0,1.0725
0,0,0.956667
0,0,0.979323
0,0,1.010052
0,0,0.967188
0,0,0.939636
2,2,0.954948
0,0,1.036719
0,0,0.97776
0,0,0.958802
2,2,1.008333
0,0,0.96552
0,0,0.961614
0,0,1.00099
0,0,0.958802
0,0,0.938646
0,0,0.947604
0,0,1.116666
0,0,0.963802
0,0,0.9625
0,0,1.050886
0,0,0.96349
0,0,0.963281
0,0,1.00849
0,0,0.961458
1,1,0.973282
0,0,1.025781
0,0,0.948698
0,0,0.943959
0,0,0.95974
0,0,1.015
0,0,0.950625
0,0,0.947709
0,0,1.022344
0,0,0.964583
0,0,0.953073
0,0,0.960573
0,0,1.016771
1,0,0.949688
0,0,0.955104
0,0,1.026927
0,0,0.964531
0,0,0.963438
0,0,1.033541
0,0,0.950625
0,1,0.960677
0,0,0.95625
0,0,1.085938
0,0,0.954687
0,0,0.955521
0,0,1.040938
0,0,0.96401
0,0,0.952343
3,0,1.01401
0,0,0.940885
0,0,0.968073
0,0,0.949115
0,0,0.980625
0,0,0.948958
0,0,0.944062
0,0,1.019427
0,0,0.956615
0,0,0.944584
0,0,1.006146
0,0,0.970937
0,0,0.968802
0,0,0.966511
0,0,0.970573
0,0,0.950209
0,1,0.962917
0,0,1.001354
2,2,0.980417
0,1,0.965833
0,0,1.01849
0,0,0.959271
0,0,0.953594
0,0,0.951719
0,0,1.012188
0,0,0.943698
0,0,0.952813
0,0,1.065261
0,0,0.981563
0,0,0.960521
0,0,1.056615
0,0,0.971146
0,0,0.945625
0,0,1.014584
0,0,0.972188
0,0,0.948542
0,0,0.945833
0,0,1.008126
0,0,0.95349
0,0,0.962552
0,3,1.039375
0,0,0.953698
0,0,0.970468
0,1,1.018386
0,0,0.961979
0,0,0.952865
0,0,0.952292
0,0,1.069271
0,0,0.948229
0,0,0.975625
0,0,1.024219
0,0,0.954532
0,0,0.957865
0,0,1.131927
2,2,0.959167
0,0,0.959739
0,0,0.947083
0,0,0.992605
0,0,0.954687
0,0,0.95948
2,2,1.009479
0,0,0.955052
0,0,0.965
0,1,1.03823
0,0,0.961615
0,0,0.998489
0,0,0.962761
0,0,1.040677
0,0,0.958386
0,0,0.963281
0,3,1.023073
0,0,0.946198
0,0,0.95875
0,0,1.034948
0,0,0.962969
0,0,0.950105
1,0,0.967292
0,0,1.004167
0,0,0.950782
0,0,0.950833
0,0,1.030938
0,0,0.981458
0,0,0.956406
0,0,1.096667
0,0,0.955678
0,0,0.951667
0,1,0.969375
0,0,0.978802
0,0,0.961666
2,2,0.948646
0,0,1.037396
0,0,0.959323
0,0,0.954115
0,0,1.036979
0,0,0.962188
0,0,0.949323
0,0,1.035833
0,0,0.964531
0,0,0.950625
0,3,0.962969
0,3,1.015521
0,0,0.950521
0,0,0.969532
0,0,1.022708
0,0,0.960521
0,0,0.969479
0,0,1.053178
0,0,0.974844
0,0,0.965416
1,1,0.962032
0,0,0.995261
2,2,0.971458
0,0,0.96651
0,0,1.125677
0,0,0.947761
0,4,0.950573
0,0,0.996406
0,0,0.973698
0,0,0.972812
0,0,0.95901
0,0,1.01349
0,0,0.949948
0,0,0.956407
0,2,1.035886
1,1,0.978177
2,2,0.951562
0,0,1.039479
0,0,0.949688
0,0,0.980625
0,1,0.949011
0,0,1.043385
0,0,0.95151
0,0,0.953021
0,0,1.024271
0,0,0.981302
0,0,0.944063
0,0,0.985521
0,0,0.954531
1,0,0.946823
0,0,0.944896
0,0,1.060834
0,1,0.952188
0,0,0.940261
0,0,1.07151
0,0,0.954583
0,0,0.948281
0,0,1.035209
0,0,0.953854
0,0,0.955417
0,0,0.955209
0,0,0.989844
0,0,0.962136
0,0,0.960833
0,0,1.011458
0,3,0.95
0,0,0.955781
0,0,0.976354
0,0,0.954844
0,0,0.951354
0,0,0.975521
2,2,1.010365
0,0,0.957916
0,0,0.95125
0,0,1.036302
0,0,0.950834
3,0,0.958177
0,0,1.010834
0,0,0.979428
0,0,0.964375
0,0,0.963958
0,0,0.997657
0,0,0.964479
0,1,0.956928
0,0,1.145208
0,0,0.951823
0,0,0.965209
0,0,0.996094
0,0,0.945937
0,0,0.945885
0,0,0.971459
0,0,1.033333
0,0,0.986719
2,2,0.959063
0,0,1.011041
0,3,0.962031
0,0,0.954375
0,0,1.013073
0,0,0.959688
0,0,0.949427
0,0,0.948437
0,2,1.019271
0,0,0.975261
0,0,0.960469
0,0,1.017135
0,0,0.953593
0,0,0.96151
0,2,0.999375
0,0,0.950209
2,2,0.957604
0,0,0.945782
2,2,0.977761
0,0,0.955677
0,0,1.009427
0,0,1.022813
0,0,0.958021
2,2,0.947292
0,0,0.947709
2,2,0.979844
0,0,0.943282
0,0,0.949219
0,0,0.998958
0,0,0.952136
0,0,0.947135
0,2,1.012188
0,0,0.956302
0,0,0.971823
0,0,0.983489
0,0,1.014948
0,0,0.983385
0,0,0.975208
0,0,1.00552
0,1,0.964948
0,0,0.970052
0,0,1.046407
0,0,0.95901
0,0,0.954896
2,2,1.023906
0,0,0.967448
0,0,0.951667
0,0,0.962552
0,0,1.030781
0,0,0.954844
0,0,1.042396
0,0,1.025156
0,0,0.993542
0,0,0.956458
0,0,1.013698
0,0,0.959739
0,0,0.970833
1,1,0.970989
1,0,1.025521
0,0,0.958125
0,0,0.970781
0,0,1.058177
0,0,0.959375
0,0,0.976042
0,0,1.085886
0,3,0.966928
0,0,0.943125
0,0,0.966042
0,0,1.024896
0,0,0.959115
0,0,0.954688
0,0,1.042552
0,0,0.960521
0,0,0.952448
0,0,0.991407
0,0,0.968646
0,0,0.960208
0,0,0.955104
0,0,1.028125
0,0,0.962292
0,0,1.048906
0,0,1.046302
0,0,0.9475
0,0,0.989583
0,0,1.042813
0,0,0.96401
0,0,0.957865
0,1,1.002448
0,0,0.959635
0,0,0.95099
0,0,0.944896
0,3,1.032813
0,0,0.941563
0,1,0.954479
0,0,0.991406
0,0,0.965364
0,0,0.936302
0,0,0.954114
0,0,1.010781
0,0,0.968386
0,0,0.952084
0,0,1.015521
0,0,0.95526
0,0,0.969583
0,0,1.024011
1,1,0.95599
1,3,0.953854
0,0,0.961355
0,0,0.985781
0,0,0.963021
0,0,1.017031
0,0,1.068282
0,3,0.953751
0,0,0.95151
2,3,1.008802
2,2,0.970677
0,0,0.980573
0,0,1.057031
0,3,0.973073
0,0,1.018282
0,0,1.049219
0,3,0.957761
0,0,0.957813
0,0,0.954792
0,0,1.045365
0,0,0.965677
0,0,0.966875
0,0,1.037031
2,2,0.958698
0,0,1.080573
0,0,1.029739
0,0,0.95
0,0,0.9425
0,0,0.957709
0,0,1.02526
2,2,0.964323
0,1,0.946354
1,1,0.988906
0,0,0.978177
0,0,0.957344
0,0,1.110729
0,0,0.974375
0,0,0.97625
0,0,0.94599
0,0,1.044584
0,0,0.951563
0,0,0.956927
0,0,1.018854
0,0,0.95526
0,0,0.945417
0,0,1.016875
2,2,0.953958
0,0,0.954323
0,0,0.944895
0,0,1.000312
0,0,0.953906
0,0,0.955364
0,0,0.986718
0,0,0.958177
0,0,0.947396
2,2,1.020104
0,0,0.950886
0,0,0.965833
0,0,0.958177
0,3,1.041407
2,2,0.946355
0,0,0.980521
0,0,0.987605
0,0,0.951042
0,1,0.967396
0,0,1.104739
0,0,0.960104
0,0,0.948073
0,0,0.957709
2,2,0.997083
0,0,0.94875
0,1,0.942813
0,0,1.020573
0,0,0.962344
0,0,0.966458
0,0,0.956718
0,0,1.043906
0,0,0.954688
0,0,0.95974
1,1,1.028854
0,1,0.976563
0,0,0.973594
0,0,1.010938
0,0,0.947552
2,2,0.975885
0,0,0.952865
0,0,1.049167
0,0,0.965365
0,0,0.96375
0,0,0.999791
0,0,0.958437
0,0,0.959739
0,0,1.063489
0,0,0.96849
0,1,1.041667
0,0,1.02802
0,0,0.964584
1,1,0.955104
0,0,0.955677
0,0,1.094635
0,0,0.973542
0,0,0.958229
0,0,1.035469
0,0,0.949011
0,0,0.980365
0,0,1.026459
0,0,0.948281
0,0,0.949167
0,0,0.963281
0,0,1.043437
0,0,0.957917
0,0,0.949375
0,4,1.033334
0,0,0.950052
0,0,0.944531
0,0,1.049896
0,0,0.94776
0,0,0.957968
0,0,0.942865
0,0,1.070469
3,0,0.966719
0,0,0.951354
0,0,1.020416
0,0,0.971824
0,0,1.048698
0,0,1.034896
2,2,0.964167
0,0,0.972032
0,0,0.959948
0,1,0.998021
0,1,0.939375
0,0,0.969792
2,2,1.00125
0,0,0.955782
0,0,0.95198
0,0,1.068021
0,0,0.961198
0,0,0.938542
0,1,0.949062
0,0,1.109375
0,0,0.9625
0,0,0.956145
0,0,1.046198
1,1,0.955364
2,2,0.959271
2,2,1.013386
2,2,0.95526
0,0,0.960989
0,0,0.949427
1,0,1.002083
0,0,0.962761
0,0,0.959687
0,0,1.000886
2,2,0.974948
0,0,1.010364
0,0,1.012083
0,0,0.95276
0,0,0.965678
0,0,0.958125
0,0,1.041823
0,0,0.956459
0,0,0.958438
0,0,1.013125
0,3,0.958959
0,0,0.951771
0,0,1.029792
0,0,0.963646
0,0,0.971302
0,0,0.949115
0,0,0.998698
0,0,0.984375
0,0,0.949428
0,0,1.040261
0,0,0.949584
0,0,0.965625
0,0,1.025625
0,0,0.964271
2,2,0.954323
0,0,0.980365
0,0,1.07776
0,0,0.962396
0,0,0.953907
0,0,0.996198
0,0,0.959896
0,0,1.01651
0,0,1.025
2,2,0.980573
0,0,0.955
0,0,0.948229
0,0,1.000521
0,0,0.967969
0,0,0.958646
0,0,0.987292
0,0,0.946511
0,0,0.970156
0,0,0.939167
0,2,0.966979
0,0,0.948333
0,0,0.951719
0,0,1.033177
0,0,0.948073
0,0,0.962813
0,0,1.007969
2,2,0.943906
0,0,0.955364
0,0,0.965208
2,2,1.028021
0,0,0.952604
0,0,0.957188
0,0,1.012865
0,0,0.967552
0,0,0.946094
0,1,0.995833
0,0,0.957552
0,0,1.057187
0,0,0.967916
0,0,1.02099
0,0,0.962239
0,0,0.946094
0,0,1.031562
0,0,0.955208
0,0,0.978334
0,0,1.008803
0,0,0.960104
0,0,0.951042
0,0,0.966875
0,0,1.04677
0,0,0.939688
0,0,0.949011
0,0,0.996719
0,2,0.947604
0,0,0.950312
0,0,1.025052
0,0,0.97224
0,1,0.946771
0,0,0.959011
0,0,1.02125
0,3,0.951719
0,0,0.953751
0,0,1.020105
1,0,0.955365
0,0,0.959376
0,0,1.016198
0,0,1.016771
0,0,0.964688
0,0,0.954063
0,0,1.011406
0,0,0.949271
0,0,0.951094
0,0,0.996614
0,0,0.945052
0,0,0.94151
0,0,0.954427
1,2,0.999636
0,0,0.958385
0,0,0.953854
0,0,1.070469
0,0,0.965416
0,0,0.94302
0,0,1.054688
0,1,0.962032
0,0,0.955521
0,0,0.952604
0,0,0.988646
0,0,0.952136
2,2,0.962448
0,0,1.032917
0,0,0.954792
0,0,0.96349
0,0,0.993958
0,0,0.951406
0,0,0.951094
0,0,0.975729
0,0,1.087605
0,0,0.956667
0,0,0.952448
3,0,1.074583
0,0,0.951094
0,0,0.98125
0,0,1.01724
0,0,0.985261
0,0,0.956511
0,0,0.957292
0,0,1.022292
0,0,0.966302
0,0,0.950156
0,0,1.056198
0,0,0.958386
0,0,0.966302
0,0,0.998229
2,2,0.960052
0,0,0.952605
0,0,0.954375
0,0,1.031303
0,0,0.963073
0,0,0.958334
2,2,1.032448
0,0,0.951979
0,0,0.948281
0,0,1.032291
0,0,0.952657
0,0,0.942188
0,0,0.941407
0,0,1.058177
2,2,0.952031
0,0,0.941875
0,1,1.015417
0,0,0.9575
0,0,0.957448
0,0,0.997396
2,2,0.95948
0,1,0.948125
2,2,0.956927
0,0,0.996719
0,0,0.951041
0,0,0.958698
0,0,1.022448
0,0,0.961667
1,1,0.948906
0,0,0.965156
0,0,1.025312
0,0,0.947605
0,0,0.949896
0,0,1.001719
1,2,0.962083
0,0,0.948646
0,0,1.04276
0,0,0.97
0,0,0.950052
0,0,0.945
0,0,1.002656
0,0,0.970625
0,0,0.946146
0,0,1.101198
0,0,0.946614
0,0,0.954062
0,0,1.029063
0,0,0.941354
0,2,0.948594
0,1,0.969428
0,0,1.042031
0,0,0.980312
0,0,0.957761
0,0,1.066771
0,1,0.96099
0,1,0.948021
0,0,0.990416
0,0,0.966302
0,0,0.951615
0,0,0.945729
0,0,0.989636
0,0,0.951719
0,1,0.941667
0,0,1.01276
2,3,0.951927
0,0,0.958334
0,0,0.943177
0,0,1.013646
0,3,0.957343
0,0,0.952865
2,2,1.065886
0,0,0.959427
0,0,0.953281
0,0,1.083541
0,0,0.935573
2,2,0.958073
0,0,0.941458
0,0,1.020364
0,0,0.959219
0,0,0.946094
0,1,1.01224
0,0,0.947865
0,0,0.955521
0,0,1.008177
0,0,0.952865
0,0,0.948958
0,0,0.942969
0,3,1.065417
0,0,0.966406
0,0,0.950885
0,0,1.039375
0,0,0.94875
2,2,0.949844
0,0,1.000156
0,0,0.959792
0,3,0.959271
0,0,0.95
0,0,1.026927
0,0,0.949375
2,2,0.969011
0,0,1.018542
0,0,0.952969
0,0,1.049584
2,2,1.03625
0,0,0.960625
0,0,0.971875
0,0,0.947865
0,0,1.021511
0,0,0.965209
2,2,0.95573
0,0,1.030261
0,0,0.956927
0,0,0.951354
0,0,0.99948
0,0,0.948281
0,0,0.95875
0,0,0.977656
0,1,1.039948
0,0,0.970833
0,0,0.954115
0,0,1.014011
0,0,0.95401
0,0,0.953906
0,0,1.001771
0,0,0.952344
0,0,0.959584
0,0,0.955417
0,0,1.037656
0,1,0.963854
0,0,0.955677
0,3,1.053959
0,0,0.964063
0,0,1.015313
0,0,0.991354
0,0,0.948542
0,0,0.971094
0,2,0.949636
0,0,1.014896
0,0,0.97125
0,1,0.958125
0,0,0.995208
0,0,0.948073
0,0,0.954688
0,1,0.967656
0,0,1.000052
0,0,0.954166
0,0,0.978646
0,0,1.047032
0,0,0.956563
0,0,0.960052
0,0,1.05099
0,0,0.962865
0,0,0.963385
0,0,0.948906
0,0,1.055937
0,0,0.966979
0,0,0.95026
0,0,1.042864
0,0,0.966667
0,0,0.947916
0,1,0.996979
0,1,0.965052
0,0,1.025157
0,0,0.966927
0,0,0.996979
0,0,0.962292
0,0,0.953854
0,2,1.060312
0,0,0.959948
0,0,0.962083
2,2,1.054948
0,0,0.959479
0,0,0.94323
0,1,0.942917
0,1,0.995
0,0,0.951771
0,0,0.936041
1,3,1.046771
0,0,0.943178
0,0,0.978333
0,0,0.992969
0,0,0.955625
0,0,0.954375
0,0,0.949375
0,3,1.000313
0,0,0.966042
0,0,0.956042
1,1,1.038593
0,0,0.955782
0,0,0.954531
0,0,1.043906
1,1,0.969167
0,0,1.046614
0,0,0.957552
0,0,1.017135
0,0,0.952396
0,0,0.964167
0,0,1.039219
0,0,0.961562
0,0,0.9575
0,0,1.016823
0,0,0.952136
0,0,0.954219
0,0,0.956979
0,0,1.063385
2,0,0.96125
0,0,0.971719
2,2,1.017032
0,0,0.954219
0,0,0.953646
0,0,1.053333
0,0,0.955052
0,1,0.962136
0,0,0.953386
0,0,1.00224
0,1,0.945573
0,0,0.958281
2,2,1.029635
0,0,0.962083
0,0,0.94224
0,0,1.010885
0,0,0.948958
0,0,1.021094
0,0,0.957291
0,0,1.01099
0,0,0.972344
0,0,0.970677
2,2,1.037865
2,2,0.967083
0,0,0.953021
0,0,1.05474
0,3,0.955886
0,0,0.955885
0,0,0.961198
1,0,1.021302
0,0,0.958437
0,0,0.957032
0,0,1.027656
3,3,0.950938
0,0,0.939843
0,0,1.000938
2,2,0.971198
0,0,0.947969
0,0,0.950416
0,0,1.01026
0,0,0.956615
0,0,0.952188
0,1,1.016615
0,0,0.951771
0,0,0.95099
0,0,0.94776
0,0,1.028959
0,2,1.006093
0,0,0.955833
0,0,1.026823
0,0,0.95599
2,1,0.948854
0,0,1.02
0,0,0.962708
0,0,0.959635
0,0,0.952656
2,2,1.013126
1,1,0.972657
0,0,0.95375
0,0,1.010885
0,0,0.95599
0,0,0.945989
0,0,1.033125
0,0,0.964844
0,0,0.964427
0,0,0.951667
2,2,1.05901
0,0,1.070938
0,0,0.97427
0,0,0.994115
2,2,0.963438
0,0,0.935312
0,0,1.060625
0,0,0.961667
1,0,0.94875
0,0,0.970209
0,0,1.086614
0,0,0.949792
0,0,0.961406
0,0,1.022136
2,2,0.944844
0,1,0.948438
0,0,1.04474
1,0,0.974375
0,0,0.9425
0,0,0.962083
2,2,1.051094
0,0,0.964167
0,0,0.959792
0,0,1.030104
0,0,0.949688
0,3,0.966406
0,0,1.015989
0,3,0.970782
0,0,0.802135
0,0,0.808855
0,0,0.853386
0,0,0.803802
0,0,0.814687
0,0,0.821042
0,0,0.963073
0,0,0.815885
0,3,0.808906
0,0,0.814062
0,4,0.87974
0,0,0.801823
2,2,0.899167
0,0,0.801458
0,0,0.895625
2,2,0.810573
0,0,0.80849
0,0,0.814323
0,0,0.884896
0,0,0.819219
0,0,0.81099
0,0,0.809792
0,0,0.887604
0,0,0.815312
0,0,0.799844
0,0,0.865625
0,0,0.816094
2,2,0.802552
0,0,0.796354
2,2,0.834375
0,0,0.802344
0,0,0.807188
0,0,0.802031
0,0,0.801562
0,0,0.821354
0,3,0.809218
0,0,0.804844
0,0,0.882708
0,0,0.831511
0,0,0.799635
0,0,0.803646
0,0,0.849271
0,0,0.867188
0,0,0.801511
0,0,0.800729
0,0,0.893073
0,0,0.803021
0,0,0.804375
0,0,0.810833
0,0,0.839636
0,0,0.811459
0,0,0.806251
2,2,0.806979
0,0,0.840678
0,0,0.806511
0,0,0.807864
0,1,0.817708
0,0,0.903229
3,0,0.817396
0,0,0.801355
0,0,0.802448
3,0,0.928906
0,0,0.813229
0,0,0.806562
0,0,0.8225
0,0,0.887501
0,0,0.808073
0,0,0.817448
0,0,0.801875
0,0,0.879844
0,0,0.811458
0,0,0.809219
0,0,0.875364
0,3,0.860678
0,0,0.81375
2,2,0.801666
0,0,0.811458
0,0,0.89849
0,0,0.805782
1,3,0.806354
0,0,0.81375
0,0,0.909376
0,0,0.822813
1,0,0.824323
0,0,0.808802
0,0,0.915209
0,0,0.814948
0,1,0.802083
0,0,0.804375
1,1,0.866354
0,0,0.818854
0,0,0.807552
0,0,0.811041
0,0,0.913125
2,2,0.806146
0,0,0.817031
0,0,0.807187
0,0,0.870417
0,0,0.801771
0,0,0.804271
0,0,0.808646
0,0,0.849167
0,0,0.887708
0,0,0.809636
0,0,0.907136
0,0,0.81099
0,0,0.818489
0,0,0.80125
2,2,0.892605
2,2,0.813073
0,3,0.822656
0,0,0.807396
0,0,0.860937
0,0,0.807968
0,0,0.802656
0,0,0.806458
0,0,0.886823
0,1,0.822657
0,0,0.810313
0,1,0.804375
0,0,0.842031
0,0,0.814115
0,0,0.805
0,0,0.819427
0,0,0.869323
0,0,0.814114
0,0,0.816198
2,2,0.803385
1,1,0.861875
0,0,0.804218
0,0,0.815053
0,0,0.858437
0,0,0.876198
0,3,0.801511
0,0,0.801354
2,2,0.818802
0,0,0.86625
3,0,0.80573
0,0,0.816667
0,2,0.816563
0,0,0.896459
0,0,0.809896
0,0,0.807813
0,0,0.80651
0,0,0.87552
2,1,0.798646
0,0,0.812865
0,0,0.804166
0,0,0.854583
0,0,0.811354
0,0,0.814792
0,0,0.804843
0,0,0.905052
0,1,0.810573
0,0,0.802864
0,0,0.80599
0,0,0.910782
2,2,0.818125
0,0,0.817448
0,0,0.810625
0,0,0.870677
0,0,0.870938
0,0,0.81875
1,2,0.805729
0,0,0.883907
0,0,0.809375
2,2,0.805625
0,0,0.812708
0,0,0.861718
0,0,0.808437
0,0,0.804896
0,0,0.806302
0,0,0.855157
0,0,0.800521
0,0,0.799479
0,1,0.811667
0,0,0.87875
0,0,0.811458
2,3,0.802656
0,0,0.804375
0,0,0.88474
0,0,0.807708
2,3,0.832032
0,0,0.806146
2,2,0.88974
0,0,0.808698
0,0,0.798229
0,0,0.797865
0,0,0.891458
0,0,0.805052
0,0,0.798646
0,0,0.931302
0,0,0.807917
0,0,0.803542
0,0,0.807656
0,0,0.852552
0,0,0.807969
0,0,0.813541
0,0,0.807708
0,0,0.901198
2,2,0.812708
0,0,0.811823
0,0,0.807709
0,0,0.906511
0,0,0.816407
0,0,0.8125
0,0,0.81927
0,0,0.845365
0,0,0.809011
0,0,0.802239
0,0,0.804271
1,0,0.870729
0,0,0.807917
0,0,0.819635
2,2,0.807605
0,0,0.876979
0,0,0.838958
0,0,0.813282
0,0,0.811042
0,0,0.868281
0,0,0.807552
0,0,0.900782
0,0,0.799584
0,0,0.903021
0,0,0.800261
2,2,0.797604
0,0,0.815781
0,0,0.888489
0,0,0.814583
0,0,0.809323
0,0,0.80151
0,0,0.861771
0,0,0.808125
2,2,0.826875
0,0,0.817239
2,2,0.883802
0,0,0.8075
0,0,0.805
0,0,0.807292
0,0,0.868073
0,0,0.863854
0,0,0.854688
0,0,0.858542
0,0,0.94026
0,0,0.817396
0,0,0.817605
0,0,0.869375
0,0,0.830677
2,2,0.813751
0,3,0.809271
0,0,0.889323
0,0,0.864896
0,0,0.812604
0,0,0.804948
0,0,0.949896
0,0,0.821094
0,0,0.818542
0,0,0.81573
0,0,0.898751
0,0,0.824063
0,0,0.843385
2,2,0.821302
0,0,0.873803
0,0,0.823958
0,0,0.821615
0,3,0.816875
0,0,0.888438
0,0,0.838698
0,0,0.828594
0,0,0.816354
0,0,0.903021
0,0,0.829791
0,0,0.823177
0,0,0.829792
0,1,0.930365
0,0,0.831302
1,2,0.829896
0,0,0.877865
1,1,0.811666
0,0,0.826302
0,0,0.828594
0,0,0.996511
0,0,0.819219
0,0,0.812344
0,1,0.813386
0,0,0.873021
0,0,0.817656
0,0,0.811407
0,0,0.815677
0,0,0.865
0,0,1.0875
0,0,0.992813
0,0,0.943803
0,0,0.825
2,2,0.862136
0,0,0.874739
0,0,1.004948
0,0,0.881042
0,0,0.861562
0,0,1.233959
3,0,1.211667
0,0,0.991563
0,0,1.081615
2,2,0.95474
0,0,0.857292
0,0,0.850729
2,2,0.925104
0,0,0.818385
0,0,0.822395
0,0,0.824375
0,0,1.019062
0,0,0.848333
0,0,0.820781
0,0,0.94099
0,1,0.836771
0,0,0.904323
0,0,1.13099
0,0,0.976459
1,1,1.838281
0,3,0.889011
0,0,0.789844
0,0,0.784739
2,2,0.787292
0,0,0.833803
0,0,0.784427
0,0,0.875938
0,0,0.787656
0,0,0.808698
0,0,0.78026
0,0,0.785052
1,1,0.798021
0,0,0.805625
0,0,0.797813
0,0,0.783959
0,0,0.790677
0,0,0.783437
0,0,0.844219
1,1,0.791615
0,0,0.785469
0,0,0.781302
0,0,0.903907
0,0,0.788646
0,0,0.788177
0,0,0.787552
0,0,0.82052
0,0,0.781927
0,0,0.783178
0,1,0.781615
1,0,0.834219
0,0,0.797135
1,0,0.789479
0,0,0.792813
0,0,0.826666
0,0,0.790781
0,0,0.784114
0,0,0.787344
0,0,0.83099
0,0,0.787188
0,0,0.782917
0,0,0.791145
0,0,0.819063
0,0,0.784791
2,2,0.784479
0,0,0.793229
0,0,0.827187
2,2,0.788594
0,0,0.785416
0,0,0.784063
0,0,0.781094
0,0,0.802552
0,0,0.830625
0,0,0.782656
0,0,0.781875
0,0,0.842604
0,0,0.782344
0,3,0.786198
0,1,0.781667
0,0,0.822656
0,0,0.784011
0,0,0.790157
0,0,0.783855
0,0,0.806458
0,0,0.78125
0,0,0.790416
0,0,0.779062
0,0,0.8175
0,0,0.781302
0,0,0.781094
0,0,0.784323
0,0,0.831303
2,2,0.787136
0,0,0.798698
0,0,0.787448
0,0,0.803854
0,0,0.796979
2,2,0.785052
0,0,0.798178
0,0,0.830313
0,0,0.786198
0,0,0.784688
0,3,0.845208
0,0,0.782552
1,0,0.814739
0,0,0.783959
2,2,0.793594
2,2,0.791406
1,0,0.811041
0,0,0.783906
0,0,0.785105
0,0,0.789063
0,0,0.841042
0,0,0.804583
0,0,0.789896
0,0,0.783907
0,0,0.839584
0,0,0.788282
0,0,0.784844
0,0,0.782188
0,0,0.818333
0,0,0.779375
0,0,0.768594
0,0,0.781511
0,0,0.831615
0,0,0.780834
1,0,0.785261
0,0,0.821719
0,0,0.826979
0,0,0.783438
0,0,0.786511
0,1,0.781979
0,0,0.852291
0,1,0.788386
0,0,0.783958
0,0,0.780468
0,0,0.840469
0,0,0.812135
3,2,0.783593
0,0,0.894948
0,3,0.865417
2,2,0.789062
0,0,0.777968
0,0,0.787344
0,0,0.816823
0,0,0.783177
1,0,0.789896
0,0,0.796979
0,0,0.837083
2,2,0.783854
0,0,0.794219
0,0,0.782708
0,0,0.809791
0,0,0.787031
0,0,0.789271
0,0,0.794532
0,0,0.788021
0,0,0.81276
0,0,0.783333
0,0,0.782239
0,0,0.794219
1,0,0.922501
0,0,0.794218
0,0,0.793542
0,0,0.788229
0,0,0.860157
0,0,0.793334
0,0,0.78823
0,0,0.786146
0,0,0.8275
0,0,0.796719
0,0,0.782031
0,0,0.78323
0,0,0.838906
0,0,0.786927
2,2,0.785677
0,0,0.786927
0,0,0.8175
3,3,0.781875
0,0,0.773542
1,0,0.786614
2,2,0.808802
0,0,0.786719
0,1,0.797136
0,0,0.789062
0,0,0.830208
0,0,0.781563
0,1,0.783229
0,0,0.784271
0,0,0.787865
0,0,0.786615
0,0,0.818438
0,0,0.77802
0,0,0.784115
0,0,0.827136
0,0,0.791302
0,0,0.783125
0,0,0.786875
0,0,0.846511
0,0,0.786718
0,0,0.77724
0,0,0.797188
0,0,0.825209
0,0,0.781719
0,0,0.780573
0,0,0.783489
0,0,0.860781
0,0,0.775104
0,0,0.799323
0,0,0.776771
0,0,0.8225
0,0,0.774948
0,0,0.776355
0,0,0.775208
1,0,0.83625
0,3,0.780834
0,0,0.774844
0,0,0.7725
0,0,0.806667
0,3,0.77573
0,0,0.776146
0,0,0.83724
0,0,0.773021
0,0,0.838646
0,0,0.774532
0,0,0.775937
0,0,0.780261
0,0,0.815677
0,0,0.78875
0,0,0.781146
0,0,0.796406
2,2,0.820625
0,0,0.791354
0,0,0.782396
0,0,0.782292
0,0,0.849583
0,1,0.786458
0,0,0.787656
2,2,0.784531
0,0,0.854844
0,0,0.781875
0,0,0.788593
1,1,0.791406
0,0,0.826979
0,0,0.788073
0,0,0.783594
0,0,0.780521
0,0,0.820989
0,0,0.78448
0,0,0.773959
0,0,0.779479
0,0,0.87849
0,0,0.80026
0,0,0.783542
0,0,0.793229
1,1,0.782656
0,0,0.816459
0,0,0.776875
0,0,0.781562
0,2,0.778438
0,0,0.812344
0,0,0.777761
2,2,0.791875
0,0,0.775521
2,2,0.845365
0,0,0.775729
1,0,0.776303
0,0,0.780209
0,0,0.809688
0,0,0.779843
0,0,0.774844
0,0,0.784896
0,0,0.81
0,0,0.77474
0,0,0.776979
0,0,0.776823
0,0,0.811927
0,0,0.792448
0,0,0.797656
2,2,0.787917
0,0,0.790104
2,2,0.826198
0,0,0.785417
0,0,0.783385
0,0,0.780417
0,1,0.849635
0,0,0.782135
0,0,0.790521
0,0,0.780313
0,0,0.829219
0,0,0.789583
0,0,0.783385
0,0,0.781458
0,0,0.806407
0,0,0.782083
0,0,0.781146
0,0,0.788437
0,0,0.820157
0,0,0.784583
0,0,0.786354
2,3,0.796094
0,0,0.819948
0,0,0.787136
0,0,0.78875
0,0,0.782396
0,0,0.817969
2,2,0.785573
0,0,0.781406
0,0,0.782709
0,0,0.819635
0,0,0.828334
0,1,0.780729
0,0,0.782031
0,0,0.78448
2,2,0.854479
0,0,0.786458
0,0,0.784114
0,0,0.78375
0,0,0.846146
0,0,0.787083
0,0,0.791771
0,3,0.785157
0,0,0.841042
0,0,0.783958
0,0,0.789635
0,0,0.802084
0,0,0.850261
0,0,0.790156
0,0,0.783073
0,1,0.799271
0,0,0.810156
0,0,0.783698
0,0,0.79901
0,0,0.780104
0,0,0.83151
0,0,0.78151
0,0,0.786614
0,0,0.783698
0,0,0.844115
0,0,0.781198
0,0,0.846927
0,0,0.777344
0,1,0.83974
0,0,0.784687
1,0,0.784167
0,0,0.783021
2,2,0.816458
0,0,0.780312
0,1,0.790521
0,0,0.782709
0,0,0.782344
0,0,0.820885
0,0,0.783854
2,2,0.784375
0,0,0.795521
0,0,0.827291
0,1,0.785729
0,0,0.795157
0,0,0.796927
0,1,0.834271
2,2,0.783073
0,0,0.783958
0,0,0.851614
0,0,0.870313
0,0,0.78198
0,0,0.795365
0,0,0.794532
0,0,0.838959
0,0,0.789428
0,0,0.790521
0,0,0.844688
0,0,0.821563
0,0,0.791042
0,0,0.803073
0,0,0.784219
0,0,0.833125
0,0,0.793646
0,0,0.785157
0,0,0.81026
2,2,0.828698
0,0,0.784167
1,1,0.794115
0,3,0.779167
0,0,0.830625
0,0,0.786563
0,0,0.792865
2,2,0.784948
1,1,0.853802
3,0,0.787031
0,0,0.783385
0,0,0.789688
0,0,0.812657
0,0,0.787083
0,0,0.784583
0,0,0.779792
0,0,0.778906
0,0,0.828489
0,1,0.78875
0,0,0.783125
0,0,0.785261
2,1,0.8875
0,4,0.780469
0,0,0.786823
0,0,0.781718
0,0,0.825678
0,0,0.781042
0,0,0.783751
0,3,0.77927
0,0,0.837031
2,3,0.779114
0,0,0.791511
0,0,0.78375
1,0,0.848281
0,0,0.787187
0,0,0.784271
2,2,0.781406
0,0,0.806042
0,0,0.786302
0,0,0.780677
0,0,0.807552
2,2,0.844844
0,0,0.787656
0,0,0.790364
0,0,0.794427
0,0,0.826875
1,1,0.793385
0,0,0.785104
1,0,0.779688
0,0,0.780469
0,0,0.818907
0,0,0.8425
0,0,0.792343
0,0,0.782708
0,0,0.830261
0,3,0.784687
0,0,0.785833
0,1,0.784167
0,0,0.834584
0,0,0.791302
1,0,0.7875
0,0,0.780416
0,0,0.806407
0,0,0.784844
0,0,0.801719
1,1,0.788541
0,0,0.835365
0,1,0.788386
1,1,0.785573
1,0,0.785104
0,0,0.832916
0,0,0.78151
2,2,0.782396
0,0,0.782604
0,0,0.818698
0,0,0.788073
0,3,0.78276
0,0,0.78849
0,0,0.825573
0,1,0.788281
0,0,0.781823
0,0,0.839375
0,0,0.782552
0,0,0.854011
0,0,0.782084
2,2,0.78974
0,0,0.782031
0,0,0.829115
2,2,0.806406
0,0,0.804687
0,0,0.785937
0,0,0.851406
0,0,0.784427
0,0,0.776614
0,0,0.792291
0,0,0.815469
0,0,0.794531
0,0,0.789688
0,0,0.789114
0,0,0.811041
0,0,0.785312
3,3,0.781302
0,0,0.784428
0,0,0.817812
0,1,0.785365
0,1,0.791094
0,0,0.776875
0,0,0.845
0,0,0.794063
0,1,0.791354
0,0,0.824688
0,0,0.825729
0,3,0.787708
0,0,0.780938
0,0,0.784167
0,0,0.827396
0,1,0.792448
0,0,0.794167
0,0,0.780105
0,0,0.789167
0,0,0.811511
1,1,0.788386
0,0,0.822344
0,0,0.784791
2,1,0.823177
0,0,0.874532
0,0,0.89599
2,2,0.980052
0,0,0.92
0,3,0.880625
0,0,0.865938
0,0,0.978229
0,0,0.898386
1,1,0.830209
0,0,0.813541
0,0,0.870468
0,0,0.852604
0,0,0.828854
2,2,0.793385
0,0,0.845365
2,2,0.844115
2,2,0.788125
0,0,0.793698
2,2,0.827188
0,0,0.792396
0,0,0.78375
0,0,0.841458
0,1,0.9425
0,0,0.881979
0,0,0.896823
0,1,0.906406
0,0,0.787083
2,2,0.77875
0,0,0.784219
0,0,0.857969
0,0,0.864791
0,0,0.874375
0,0,0.805417
0,0,0.827396
0,0,0.793854
0,0,0.792605
0,0,0.791615
0,0,0.852917
0,0,0.831667
0,0,0.785052
0,0,0.780104
0,0,0.826719
0,0,0.789323
1,2,0.797864
0,0,0.812917
0,0,0.933333
0,0,0.846927
0,0,0.802864
0,0,0.7825
0,3,0.845365
0,0,0.802813
0,0,0.792187
0,0,0.797188
0,0,0.882813
0,0,0.793907
0,4,0.786042
0,0,0.78875
0,0,0.833334
0,0,0.795156
0,0,0.793334
0,1,0.769635
2,2,0.821303
0,0,0.819479
0,0,0.836041
2,2,0.805104
0,0,0.881927
0,0,0.816146
0,0,0.80026
2,2,0.787135
0,0,0.840364
0,0,0.794531
0,0,0.783177
0,3,0.796094
0,0,0.815365
0,0,0.785156
0,0,0.827917
0,0,0.78651
0,0,0.782031
0,0,0.854011
0,0,0.802708
0,0,0.791042
0,2,0.786979
0,0,0.83573
0,0,0.797761
0,0,0.782448
0,0,0.780417
0,0,0.864792
0,0,0.792812
0,0,0.782864
0,0,0.787083
0,0,0.815365
2,2,0.783489
0,0,0.780989
0,1,0.784896
0,0,0.803698
0,0,0.787761
0,0,0.780625
0,0,0.781094
0,0,0.807813
0,0,0.783073
2,2,0.798594
0,0,0.802656
0,0,0.864479
0,0,0.797657
0,0,0.785417
0,0,0.853958
0,0,0.869323
0,0,0.78401
0,0,0.797709
0,0,0.783125
0,0,0.822135
0,0,0.782448
2,2,0.783021
0,0,0.786094
1,1,0.798334
0,0,0.800208
1,0,0.786928
0,1,0.780104
0,0,0.782552
0,0,0.859219
0,0,0.787761
0,1,0.788125
0,0,0.781354
0,0,0.842553
0,0,0.778177
0,0,0.784115
0,0,0.783542
0,0,0.861354
0,0,0.791719
0,0,0.783906
0,0,0.782917
0,0,0.808958
0,0,0.780937
0,0,0.781875
0,3,0.848542
0,0,0.820469
0,0,0.786927
0,0,0.784844
0,0,0.780417
2,2,0.808334
2,2,0.78552
0,0,0.789739
0,0,0.788802
2,2,0.803854
0,1,0.78349
0,0,0.787969
0,0,0.793021
0,0,0.868646
0,0,0.802136
0,1,0.785157
0,0,0.784427
1,0,0.79526
0,0,0.869062
2,2,0.789062
0,0,0.777709
0,0,0.790416
0,0,0.810781
1,1,0.778125
0,0,0.779532
0,1,0.792552
0,0,0.838125
0,3,0.801823
0,0,0.782709
0,0,0.787708
1,0,0.853802
0,0,0.787604
0,0,0.784115
0,0,0.786145
0,0,0.822656
0,0,0.774583
0,0,0.785625
0,0,0.779948
0,0,0.821354
0,0,0.784895
2,2,0.784896
0,0,0.786094
0,0,0.831615
0,0,0.786354
0,0,0.781094
0,0,0.788958
0,0,0.822708
0,0,0.787187
0,3,0.787031
0,0,0.786198
0,0,0.78474
0,0,0.805104
0,0,0.785104
0,0,0.788334
0,3,0.787865
0,0,0.829688
0,0,0.783073
0,0,0.780677
0,0,0.791459
2,2,0.814427
0,0,0.849428
2,2,0.797552
0,0,0.78474
0,0,0.846198
2,2,0.787031
0,0,0.780052
0,0,0.80323
0,0,0.886302
0,0,0.790833
0,0,0.783125
0,0,0.786823
0,0,0.814636
0,0,0.793594
0,0,0.789948
0,0,0.787188
0,0,0.839688
0,0,0.789739
0,0,0.78875
0,0,0.787708
0,0,0.825833
2,2,0.79073
0,0,0.78276
0,0,0.787343
0,0,0.814219
0,0,0.790104
0,0,0.786094
0,0,0.784063
0,0,0.794115
0,0,0.812292
0,0,0.785885
0,0,0.836094
0,0,0.783593
0,0,0.859063
0,0,0.781198
1,0,0.779636
0,0,0.801093
0,0,0.837292
0,0,0.783385
1,0,0.787605
0,0,0.774219
0,0,0.807865
0,0,0.789844
2,2,0.787552
0,0,0.788802
0,0,0.841979
0,0,0.786667
0,0,0.795886
0,0,0.801927
0,0,0.835417
0,0,0.790573
0,0,0.786719
0,0,0.78776
0,0,0.818333
0,1,0.782812
0,0,0.788281
0,0,0.792708
0,0,0.861042
2,2,0.779844
1,0,0.785364
0,0,0.791666
0,0,0.870625
0,0,0.7725
0,0,0.789219
0,0,0.789739
0,0,0.811042
0,0,0.78776
0,0,0.784479
0,0,0.787187
2,0,0.783385
0,0,0.833958
1,0,0.780365
0,0,0.78651
0,0,0.785678
0,1,0.828438
0,0,0.778542
0,0,0.779948
0,0,0.784948
0,0,0.848438
0,0,0.783802
0,0,0.779635
0,0,0.779948
0,0,0.850417
0,0,0.789375
0,0,0.79349
0,0,0.802344
0,0,0.806615
0,0,0.791979
0,0,0.786406
0,1,0.792917
0,0,0.817553
0,0,0.838281
0,0,0.786042
0,0,0.782344
2,2,0.826614
0,1,0.800573
0,0,0.783906
2,2,0.767239
0,0,0.845625
0,0,0.791146
0,0,0.788907
0,0,0.780885
0,1,0.785208
0,0,0.819791
0,0,0.780156
0,0,0.792135
0,0,0.786927
0,0,0.86401
2,2,0.788803
2,2,0.785989
0,0,0.776094
1,1,0.828646
0,0,0.783854
0,0,0.781458
0,0,0.78323
0,0,0.804219
0,0,0.785365
0,0,0.782135
0,0,0.796771
0,0,0.820469
0,0,0.824792
1,1,0.788594
0,0,0.783073
0,0,0.812865
0,0,0.784479
0,0,0.796615
0,0,0.782604
0,0,0.80724
0,0,0.787864
0,0,0.772708
0,0,0.783959
0,0,0.786146
0,0,0.884844
0,0,0.779323
0,0,0.782239
0,0,0.786302
0,0,0.803178
0,0,0.793334
0,0,0.783333
0,0,0.787135
0,0,0.827239
1,0,0.783334
0,0,0.796406
0,0,0.807344
0,0,0.857187
0,0,0.788906
0,0,0.793177
0,0,0.780886
0,0,0.816927
0,4,0.779427
2,2,0.852448
0,0,0.780521
0,0,0.824635
0,0,0.779688
0,0,0.791302
0,0,0.780208
0,0,0.899218
0,0,0.793646
0,0,0.784323
0,0,0.785417
0,0,0.81323
0,0,0.78
0,0,0.780729
0,0,0.788437
0,1,0.791146
0,0,0.786771
0,0,0.787292
0,0,0.785104
0,0,0.786094
0,0,0.838125
0,0,0.786563
1,0,0.778542
2,2,0.795261
0,0,0.828125
0,0,0.788542
0,0,0.781303
0,0,0.780313
0,0,0.814584
1,1,0.769479
2,2,0.784583
0,0,0.831667
0,0,0.858438
0,0,0.806667
0,2,0.784844
0,0,0.788385
0,0,0.80276
0,0,0.793281
0,0,0.789271
0,0,0.784948
0,0,0.830365
0,1,0.806354
0,0,0.783802
0,0,0.782292
1,1,0.844063
0,0,0.783177
0,1,0.786094
0,0,0.781042
0,0,0.836563
0,0,0.786511
0,0,0.792552
0,1,0.800416
0,0,0.835105
0,0,0.786094
0,0,0.77948
0,0,0.777552
0,0,0.79026
2,2,0.848646
0,0,0.797032
0,0,0.79151
0,0,0.794219
0,0,0.86224
0,0,0.784792
1,1,0.783594
0,0,0.783282
0,0,0.82
0,0,0.801979
0,0,0.771614
0,0,0.76974
0,0,0.830156
2,2,0.786927
0,0,0.784167
0,0,0.787552
0,0,0.820989
0,0,0.779844
2,2,0.781146
0,0,0.781198
0,0,0.809271
0,0,0.785208
0,0,0.788438
0,0,0.787917
0,0,0.847448
2,2,0.792083
0,0,0.784948
1,0,0.78875
0,0,0.860886
0,0,0.781667
3,1,0.794948
2,2,0.804896
0,0,0.813177
0,0,0.789167
2,2,0.821667
0,0,0.79573
0,0,0.784479
0,0,0.826094
2,4,0.794427
0,0,0.783958
0,0,0.774844
0,0,0.799584
0,0,0.788021
0,0,0.786094
0,0,0.784688
0,0,0.838125
0,0,0.785937
0,0,0.785938
0,0,0.790885
0,0,0.886146
0,0,0.796146
1,1,0.786823
3,0,0.791042
0,0,0.819166
0,0,0.78599
1,0,0.78724
0,1,0.80599
2,2,0.829115
2,2,0.785938
0,0,0.783854
0,0,0.782969
0,0,0.823229
0,0,0.785521
0,0,0.846771
0,0,0.783385
0,0,0.817448
2,2,0.780312
0,0,0.781771
0,0,0.783281
0,0,0.788906
0,0,0.790156
0,0,0.77625
0,0,0.779792
0,0,0.781406
0,0,0.872813
0,0,0.785469
0,0,0.789791
0,0,0.791406
0,0,0.84401
0,0,0.790208
2,1,0.782865
0,0,0.783542
0,0,0.808594
0,0,0.794219
0,0,0.792188
2,2,0.782813
0,0,0.83974
0,0,0.793073
0,0,0.784063
2,2,0.782032
0,0,0.817187
0,0,0.784792
0,0,0.782864
0,0,0.850313
0,0,0.823751
0,0,0.785573
0,0,0.782396
0,0,0.785052
0,0,0.855938
0,0,0.790677
0,0,0.787864
0,0,0.78375
0,0,0.812083
0,0,0.794583
2,2,0.782552
0,0,0.780208
0,0,0.787553
0,0,0.811615
0,0,0.791562
0,0,0.780573
0,0,0.783698
0,0,0.817865
0,0,0.787188
0,0,0.797448
2,2,0.781094
0,0,0.818334
3,3,0.783489
0,0,0.783698
0,0,0.784948
0,0,0.834219
0,0,0.7875
0,0,0.781666
0,0,0.780573
0,0,0.891146
0,0,0.789636
0,0,0.806771
0,0,0.794011
0,3,0.824063
0,0,0.796303
0,0,0.790834
0,0,0.78776
0,3,0.80974
0,0,0.783073
0,0,0.793021
0,0,0.784584
0,0,0.821667
0,0,0.789531
0,0,0.78099
0,0,0.785208
0,0,0.784843
0,0,0.814114
0,0,0.784271
0,0,0.792917
0,0,0.782552
0,0,0.825052
0,0,0.785469
0,0,0.806875
0,0,0.777656
0,0,0.850677
0,0,0.788125
2,2,0.788073
0,0,0.786041
0,0,0.832031
0,0,0.848333
0,0,0.789636
0,0,0.78448
0,3,0.808177
0,3,0.79875
0,0,0.785468
2,2,0.787031
0,0,0.820573
0,0,0.78474
0,0,0.786823
0,0,0.785989
0,3,0.809687
0,0,0.797292
0,0,0.78474
1,0,0.788542
0,0,0.820365
0,0,0.784948
0,0,0.78125
0,0,0.794532
0,0,0.873646
0,0,0.790833
0,0,0.781198
0,0,0.795521
0,0,0.784323
1,1,0.811198
0,0,0.792553
0,0,0.78125
0,0,0.78099
0,0,0.828073
0,0,0.788125
0,0,0.84099
0,0,0.789844
0,0,0.853021
0,0,0.786615
0,0,0.784219
0,0,0.785573
0,0,0.808334
0,0,0.782552
1,0,0.780313
0,0,0.79625
0,0,0.809791
1,0,0.782708
0,0,0.782813
0,1,0.78474
0,0,0.863541
0,1,0.793542
0,0,0.789219
0,0,0.789531
0,0,0.828333
0,0,0.793386
0,0,0.783177
0,0,0.781979
0,0,0.818958
0,0,0.786615
2,2,0.790469
0,0,0.783229
0,0,0.784531
0,0,0.819896
0,0,0.793958
0,0,0.786563
0,0,0.833073
0,0,0.825208
2,2,0.787657
0,0,0.780469
0,0,0.780417
2,0,0.819844
0,0,0.803803
0,0,0.789167
0,0,0.787656
0,0,0.860573
0,0,0.783334
0,0,0.827031
0,0,0.778229
0,0,0.837552
2,3,0.783333
0,0,0.787552
0,0,0.782761
0,0,0.807448
0,0,0.784896
0,0,0.777709
0,0,0.778386
0,0,0.937188
0,0,0.780625
0,0,0.778021
0,3,0.784271
0,0,0.807604
0,0,0.782969
0,0,0.781198
0,0,0.77974
0,0,0.906875
0,0,0.783021
0,0,0.784844
0,0,0.78151
0,0,0.859427
0,0,0.795312
0,0,0.778125
0,0,0.787969
0,0,0.815573
0,0,0.775416
0,0,0.777812
0,0,0.788906
2,2,0.805886
2,2,0.790521
0,0,0.786302
0,0,0.788281
0,0,0.803125
0,3,0.826042
0,0,0.796093
0,0,0.779271
0,0,0.778281
0,0,0.83323
0,0,0.776511
0,0,0.792552
0,0,0.7925
2,2,0.835677
0,0,0.778854
0,3,0.776407
0,0,0.787552
0,0,0.85625
0,0,0.832812
2,2,0.797813
0,0,0.788386
0,0,0.825937
0,0,0.781719
0,0,0.792865
0,0,0.785053
0,0,0.871041
0,0,0.797916
0,0,0.798593
0,0,0.783125
0,0,0.831094
0,0,0.788698
0,1,0.787865
0,0,0.780989
0,0,0.813177
0,0,0.781927
0,0,0.785104
0,0,0.78599
0,0,0.803698
0,0,0.781406
0,0,0.788489
0,0,0.790989
0,0,0.780312
0,0,0.853802
0,0,0.787917
0,0,0.783802
0,1,0.785105
0,0,0.822292
0,0,0.795365
0,0,0.835833
0,0,0.781979
0,0,0.842344
2,2,0.783646
0,0,0.779739
0,3,0.785677
2,2,0.827396
0,0,0.787136
0,0,0.796719
0,0,0.785052
0,1,0.824375
0,0,0.794166
0,3,0.792396
0,0,0.785
0,0,0.811146
0,0,0.779635
1,1,0.766823
0,0,0.784948
0,0,0.865104
0,0,0.791927
0,0,0.789688
0,0,0.785052
0,0,0.826562
0,0,0.794427
2,2,0.783177
0,0,0.789479
0,0,0.791354
0,1,0.783542
0,0,0.783021
0,0,0.787343
0,0,0.851927
0,0,0.82224
0,0,0.786042
0,0,0.792968
0,0,0.795781
0,0,0.857656
0,3,0.778177
0,0,0.794115
0,0,0.77974
0,0,0.808646
0,0,0.79151
0,0,0.782136
0,0,0.782291
0,1,0.850937
0,0,0.784011
0,0,0.779583
0,0,0.785104
1,1,0.80651
0,0,0.78651
0,0,0.782761
0,0,0.783021
0,0,0.800104
2,2,0.785
0,0,0.807552
0,3,0.78125
0,0,0.817813
0,0,0.800729
0,0,0.818021
0,0,0.802396
0,0,0.827657
0,0,0.830937
0,0,0.779375
1,0,0.783333
0,0,0.789114
0,0,0.841979
0,0,0.779375
0,0,0.78724
0,0,0.788281
0,0,0.847708
0,0,0.783855
0,0,0.789323
0,0,0.796875
0,0,0.816198
0,0,0.783073
0,0,0.784532
1,0,0.776094
0,0,0.82
0,0,0.782552
0,0,0.780104
0,0,0.781146
0,0,0.821771
0,0,0.786562
0,0,0.779948
0,0,0.775
0,0,0.811771
0,0,0.781875
0,0,0.789062
0,1,0.777865
0,0,0.801615
0,0,0.827344
0,0,0.779375
2,2,0.780938
0,0,0.785937
0,0,0.792187
2,3,0.786198
0,0,0.778282
0,0,0.777448
0,0,0.813854
1,1,0.780417
0,0,0.775677
0,0,0.78974
0,0,0.810677
0,0,0.780312
0,0,0.779115
0,1,0.786198
2,2,0.846459
0,0,0.803073
0,0,0.781927
0,0,0.788802
0,0,0.814479
0,0,0.77724
0,0,0.780833
1,1,0.777709
0,0,0.801407
0,0,0.79099
0,0,0.780833
0,0,0.774792
0,0,0.840104
0,0,0.781719
0,0,0.829115
1,1,0.784427
0,0,0.804479
0,0,0.795052
0,0,0.782084
0,1,0.788906
0,0,0.790886
0,0,0.824219
0,0,0.780156
0,0,0.792188
0,0,0.783907
0,0,0.822604
0,0,0.780104
0,0,0.777552
0,0,0.77776
0,0,0.809166
0,0,0.786355
0,0,0.784584
0,0,0.783542
0,0,0.811198
2,2,0.78125
2,2,0.789584
0,0,0.786302
0,0,0.882708
0,0,0.796198
0,0,0.783958
0,3,0.786198
2,2,0.836094
0,0,0.791302
0,0,0.78474
0,0,0.841302
1,1,0.814323
0,0,0.795782
2,2,0.799115
2,2,0.787135
0,0,0.838542
0,0,0.793021
0,0,0.809687
0,0,0.798438
0,0,0.783958
2,4,0.818386
0,0,0.785417
0,0,0.780365
1,1,0.782396
0,0,0.807031
0,0,0.782188
0,0,0.782761
0,0,0.78125
0,0,0.853906
0,0,0.792084
2,2,0.793229
0,1,0.791718
0,0,0.819635
0,0,0.784531
0,0,0.784323
0,0,0.792291
0,0,0.817864
0,0,0.794739
0,0,0.783803
0,0,0.774115
0,0,0.89474
0,0,0.782187
0,0,0.779792
0,0,0.780833
0,0,0.821979
0,0,0.7875
2,2,0.778907
0,0,0.787135
0,3,0.839115
0,0,0.795521
0,0,0.78401
0,0,0.788281
0,0,0.788385
2,2,0.858906
0,0,0.780105
0,2,0.780052
0,1,0.779427
0,0,0.818959
0,0,0.784271
0,0,0.797031
0,0,0.798125
0,1,0.819479
0,0,0.787813
0,0,0.790209
0,0,0.791667
0,0,0.839635
0,0,0.766459
0,0,0.785469
0,0,0.785156
0,0,0.821458
0,0,0.832083
0,0,0.79677
0,0,0.781875
2,2,0.80875
3,0,0.785573
2,3,0.783541
0,0,0.786875
0,0,0.854531
0,0,0.796302
0,0,0.776771
0,0,0.785573
0,3,0.821771
0,0,0.78375
0,1,0.791563
0,0,0.782292
0,0,0.815781
0,0,0.784688
0,0,0.784115
0,0,0.780104
0,0,0.794375
0,1,0.869948
0,0,0.78849
0,0,0.802448
0,0,0.780521
0,0,0.836562
0,0,0.780937
0,0,0.777813
0,0,0.781406
0,0,0.876094
0,0,0.841303
0,0,0.783229
1,0,0.779583
0,0,0.863333
0,0,0.786458
0,0,0.775261
0,0,0.790729
0,0,0.822448
0,0,0.810834
0,0,0.781407
0,0,0.788177
2,2,0.830208
2,2,0.779219
0,0,0.788854
0,0,0.783281
2,2,0.832604
0,0,0.785417
0,0,0.778854
0,0,0.781563
0,0,0.811303
0,0,0.801094
0,0,0.780938
0,0,0.787083
0,0,0.80823
0,0,0.790573
0,0,0.789792
0,0,0.77974
2,2,0.785469
0,0,0.861667
0,0,0.789844
0,0,0.850313
0,0,0.781458
0,0,0.820156
0,0,0.789896
0,0,0.790313
0,0,0.787813
0,0,0.810104
0,0,0.780156
0,0,0.779635
0,0,0.785781
0,0,0.823178
0,0,0.787656
0,0,0.780521
0,0,0.785156
0,0,0.820104
1,3,0.78698
0,0,0.78099
2,2,0.782709
0,0,0.809636
0,0,0.785
0,0,0.78
2,2,0.780261
0,0,0.856615
2,2,0.785208
0,0,0.785677
0,0,0.811146
0,0,0.827605
0,0,0.789375
0,3,0.788594
0,3,0.787813
0,0,0.892917
0,0,0.79875
0,1,0.785469
0,0,0.782032
0,0,0.780521
0,0,0.822552
0,0,0.782812
0,0,0.779167
0,0,0.79849
0,0,0.811458
0,0,0.787604
0,0,0.780833
0,0,0.785105
1,0,0.846406
0,0,0.784688
0,0,0.794167
0,0,0.78125
0,0,0.857136
0,0,0.786355
0,1,0.785469
0,0,0.78474
0,0,0.816251
0,0,0.791459
1,1,0.779115
0,0,0.780209
0,0,0.803959
0,0,0.781667
0,0,0.784219
0,0,0.7925
0,0,0.816667
0,0,0.816198
0,0,0.783073
0,0,0.78401
0,0,0.776042
0,0,0.821406
0,0,0.800052
0,1,0.788385
0,0,0.778385
0,0,0.819531
0,0,0.796459
0,0,0.785365
0,0,0.791562
0,0,0.863385
0,0,0.803177
0,0,0.793125
2,2,0.792032
0,0,0.882552
2,2,0.788333
0,1,0.789219
0,0,0.792552
0,0,0.821875
0,0,0.788385
0,0,0.779063
0,0,0.779063
0,0,0.823229
2,2,0.780729
0,1,0.789635
0,0,0.781094
0,0,0.80776
0,0,0.781407
0,0,0.830156
2,2,0.786771
0,0,0.815469
0,0,0.77948
0,0,0.781666
0,0,0.792448
0,0,0.859011
0,0,0.789167
0,0,0.780052
0,0,0.799011
2,2,0.778021
0,0,0.812032
0,0,0.780938
0,0,0.781302
2,2,0.78625
0,0,0.819739
0,0,0.789323
1,0,0.792344
0,0,0.801771
0,0,0.82625
0,0,0.795625
0,0,0.787865
0,0,0.791719
0,0,0.82349
0,0,0.78625
0,0,0.79151
0,0,0.786354
2,2,0.823593
0,0,0.783958
0,0,0.792656
0,0,0.854636
0,0,0.88448
0,0,0.786614
0,0,0.791771
0,0,0.792605
0,0,0.824323
0,0,0.783906
0,0,0.796094
0,0,0.794532
0,0,0.81401
0,0,0.781511
0,0,0.790885
0,0,0.780208
0,0,0.824375
0,0,0.784844
0,0,0.782083
1,0,0.782083
0,0,0.791145
0,0,0.824063
0,1,0.785729
0,0,0.788959
0,0,0.784011
0,0,0.824479
0,0,0.792136
0,1,0.783386
2,2,0.790625
0,0,0.855156
0,0,0.787239
0,0,0.793542
0,0,0.858646
0,0,0.826458
2,2,0.793594
0,0,0.788854
0,0,0.778334
0,0,0.819427
0,0,0.784792
0,0,0.785052
0,0,0.78198
0,0,0.828906
0,0,0.78776
0,3,0.782448
0,0,0.784375
2,2,0.808438
0,0,0.784584
1,1,0.780625
0,0,0.779531
1,1,0.871667
0,0,0.813229
0,0,0.797969
0,0,0.782604
0,0,0.863386
0,0,0.778958
0,0,0.787136
0,0,0.785886
0,0,0.793542
0,0,0.789896
0,0,0.780938
0,0,0.780261
0,0,0.787187
0,0,0.881875
0,0,0.79
0,0,0.787709
0,0,0.791354
0,0,0.827292
0,0,0.78151
0,0,0.783698
0,0,0.772917
0,0,0.825937
0,0,0.790209
0,0,0.787188
0,0,0.793802
0,0,0.810626
2,2,0.780781
0,0,0.787084
0,0,0.783386
1,0,0.862448
0,0,0.785156
0,0,0.78448
0,0,0.781979
0,0,0.822552
0,0,0.78
0,3,0.785312
0,0,0.792084
0,0,0.813594
0,0,0.787032
0,0,0.777709
0,0,0.785469
0,0,0.792969
0,0,0.82375
0,0,0.838229
0,0,0.782605
0,0,0.789948
0,0,0.795156
0,0,0.792917
0,0,0.797396
0,0,0.796198
1,1,0.826302
0,0,0.788073
0,0,0.798698
0,0,0.788698
0,0,0.88474
0,0,0.79375
0,0,0.788958
0,0,0.780677
0,0,0.816093
0,0,0.788958
0,0,0.78151
0,0,0.78125
0,1,0.835937
0,0,0.786458
0,0,0.780677
0,0,0.783229
0,0,0.824792
0,0,0.784063
0,0,0.789271
0,0,0.786562
0,0,0.814532
0,0,0.789375
0,0,0.78401
0,0,0.842187
0,0,0.815677
0,0,0.779636
0,0,0.790261
0,0,0.794792
0,0,0.77849
0,0,0.854688
0,0,0.781563
0,0,0.782604
0,0,0.786458
0,1,0.833489
0,0,0.780156
0,0,0.785052
0,0,0.783073
0,0,0.806719
2,2,0.798125
2,2,0.782709
0,0,0.79875
0,1,0.828907
0,0,0.781562
0,0,0.780886
0,0,0.804219
0,0,0.846719
0,0,0.781511
0,0,0.786094
2,2,0.787812
0,0,0.804896
0,0,0.780677
0,0,0.79224
0,0,0.790938
0,0,0.946667
0,0,0.789063
0,0,0.785938
2,2,0.783281
0,0,0.808594
0,0,0.788021
0,0,0.783541
0,0,0.777135
0,0,0.837604
0,0,0.781146
0,0,0.783333
0,0,0.785469
0,0,0.783802
0,0,0.829375
0,0,0.795052
0,0,0.792656
0,1,0.782657
0,0,0.826615
0,0,0.782188
0,0,0.782292
0,1,0.781979
2,2,0.839792
0,0,0.780573
2,2,0.784896
0,0,0.788698
0,0,0.855885
0,0,0.78474
0,0,0.788854
0,0,0.801407
2,2,0.867135
0,0,0.786979
0,0,0.773594
0,0,0.775312
0,0,0.805365
0,0,0.778958
2,2,0.783698
0,0,0.779844
0,0,0.832916
2,0,0.804167
0,0,0.798333
0,1,0.799271
2,2,0.845573
0,1,0.796719
0,0,0.799114
0,4,0.794167
0,0,0.808229
0,0,0.793959
0,0,0.786823
0,0,0.782916
0,0,0.791041
0,0,0.853959
0,0,0.782917
0,0,0.785156
0,0,0.784532
0,0,0.832343
0,0,0.791667
0,0,0.79026
0,0,0.779635
0,0,0.820105
0,0,0.843229
0,0,0.793177
0,0,0.782813
0,0,0.853125
2,2,0.786563
0,0,0.789895
0,0,0.782084
0,0,0.812552
0,0,0.787344
1,1,0.783802
0,0,0.806875
0,0,0.807604
0,0,0.786563
0,0,0.78625
0,0,0.762969
0,0,0.854323
0,1,0.789271
0,0,0.799844
2,2,0.779115
0,0,0.808542
0,0,0.779896
0,1,0.782656
0,0,0.778281
3,3,0.784219
0,0,0.821407
0,0,0.787864
0,0,0.781927
0,0,0.791979
0,0,0.839532
0,0,0.795625
0,0,0.845104
0,0,0.79875
0,0,0.827916
0,0,0.788073
0,0,0.776719
0,0,0.781198
0,0,0.810834
0,0,0.788855
0,0,0.785416
2,2,0.793021
0,0,0.874688
0,0,0.783333
0,0,0.782136
2,2,0.788802
0,0,0.831614
0,2,0.787553
0,0,0.784636
0,0,0.785365
2,2,0.806615
2,2,0.791458
0,0,0.780573
0,0,0.787343
0,0,0.828646
0,0,0.783437
0,0,0.793073
0,0,0.780313
0,0,0.821302
0,0,0.817552
0,0,0.793959
0,0,0.775989
0,0,0.818021
0,0,0.805677
1,0,0.787917
0,0,0.78875
0,0,0.779791
2,1,0.853334
0,0,0.78599
0,0,0.784427
0,0,0.788854
1,0,0.816927
0,0,0.791719
0,0,0.781771
0,0,0.783698
0,0,0.830156
0,0,0.811042
1,0,0.796093
0,0,0.783594
0,0,0.845365
0,0,0.781927
0,0,0.778125
0,0,0.781302
0,0,0.821771
1,0,0.787084
0,0,0.783594
0,0,0.780052
0,0,0.852084
0,0,0.785937
0,0,0.784843
0,0,0.782916
0,0,0.855677
0,0,0.841718
0,0,0.782135
0,3,0.785469
0,0,0.821979
0,0,0.779427
0,0,0.789271
0,0,0.778959
0,1,0.778229
2,2,0.819271
0,3,0.796666
3,0,0.782083
0,0,0.7925
0,0,0.83724
0,0,0.78349
0,0,0.78099
0,0,0.780937
0,0,0.825573
0,0,0.784896
0,0,0.791094
0,0,0.780573
0,0,0.824532
0,0,0.779688
0,0,0.792552
0,0,0.803645
0,0,0.859844
0,0,0.781198
0,0,0.780365
0,0,0.781563
0,0,0.818073
0,0,0.81526
0,0,0.799792
0,0,0.799479
2,2,0.816406
0,0,0.784115
0,0,0.776093
0,2,0.776718
0,0,0.825834
0,0,0.786875
0,0,0.789167
0,0,0.778751
0,0,0.778282
3,0,0.798542
3,3,0.786615
0,0,0.783906
0,0,0.784896
0,0,0.823698
3,0,0.779427
0,0,0.774427
0,0,0.777761
0,0,0.872656
0,0,0.787031
0,0,0.78
2,2,0.789427
0,0,0.816771
0,0,0.781302
0,1,0.777188
0,0,0.779479
0,0,0.830938
0,0,0.779531
0,0,0.843125
0,1,0.777187
0,0,0.819584
0,0,0.777969
0,0,0.780104
0,0,0.786407
0,0,0.817812
0,0,0.786875
0,0,0.794063
0,0,0.765156
0,0,0.786823
0,0,0.817032
0,1,0.782396
0,0,0.778854
0,0,0.787136
0,0,0.851771
0,0,0.786667
0,0,0.787448
0,0,0.801406
0,0,0.826459
0,0,0.793021
0,0,0.789323
0,0,0.794323
2,2,0.812605
0,3,0.800521
0,0,0.787135
0,0,0.7775
0,0,0.825052
0,0,0.783698
0,1,0.773906
0,0,0.851406
0,0,0.820781
0,0,0.790156
0,0,0.785
0,0,0.783489
0,0,0.818959
0,0,0.788594
0,0,0.796094
0,0,0.790625
0,0,0.850105
0,0,0.784844
0,0,0.787761
0,0,0.781875
0,0,0.785104
2,2,0.818073
0,0,0.780417
2,2,0.786771
0,0,0.780312
0,0,0.828281
0,0,0.782917
0,0,0.783958
0,0,0.794479
0,0,0.839635
0,0,0.776042
0,0,0.780364
0,0,0.788854
0,0,0.809427
2,2,0.788907
0,0,0.777344
0,0,0.780416
0,0,0.863959
0,0,0.7825
0,0,0.789844
0,0,0.790937
0,0,0.845052
0,0,0.78849
0,0,0.79875
2,2,0.802812
0,0,0.835573
0,0,0.791979
1,0,0.786875
0,0,0.787916
0,0,0.804063
0,0,0.803073
0,0,0.792604
0,0,0.79375
0,1,0.82698
2,2,0.787813
0,0,0.796198
0,0,0.789375
0,0,0.782396
0,0,0.818906
0,0,0.786094
0,0,0.782813
0,0,0.784063
0,0,0.793802
0,0,0.788594
0,0,0.781042
0,0,0.784271
0,3,0.856302
0,0,0.825886
0,1,0.775
2,2,0.782344
0,0,0.843698
0,0,0.779948
0,0,0.779792
0,0,0.786042
2,2,0.811354
2,2,0.781823
0,0,0.785156
0,0,0.784844
2,2,0.81349
0,0,0.781458
0,0,0.78375
0,0,0.784114
0,0,0.806198
0,0,0.786251
0,0,0.793698
1,1,0.78724
0,0,0.783125
0,0,0.800781
0,1,0.780417
0,0,0.78276
0,0,0.795886
0,0,0.884791
0,0,0.785261
0,0,0.785833
0,0,0.783698
0,0,0.805417
0,0,0.788386
2,2,0.844219
2,2,0.79474
0,2,0.835521
0,0,0.784531
0,0,0.785312
0,0,0.782968
0,0,0.822448
2,2,0.795313
0,0,0.785
0,0,0.783698
0,0,0.815834
0,0,0.784427
0,0,0.780157
0,0,0.786511
0,0,0.8175
0,0,0.783959
0,0,0.790156
0,0,0.776302
0,0,0.845209
0,0,0.785938
0,0,0.788021
0,0,0.789792
0,0,0.783594
0,0,0.819739
0,0,0.786979
0,0,0.782032
2,2,0.779948
0,0,0.818125
0,0,0.788854
1,0,0.813281
0,0,0.793646
0,0,0.834271
0,0,0.785938
0,0,0.772188
0,0,0.781876
0,0,0.833958
0,0,0.782396
0,0,0.781563
0,0,0.782813
0,3,0.802553
0,0,0.793698
0,0,0.811667
0,0,0.787865
0,3,0.866875
0,3,0.780938
2,2,0.785052
0,0,0.786615
2,2,0.828073
0,0,0.792604
0,0,0.780885
0,3,0.784688
0,0,0.812188
0,3,0.785313
2,3,0.784323
0,0,0.782344
0,0,0.78526
3,3,0.840834
0,0,0.820208
0,1,0.785261
0,0,0.859896
1,0,0.783542
0,0,0.79776
0,0,0.781979
0,0,0.83349
1,1,0.791875
0,0,0.784115
0,0,0.779375
0,1,0.983542
0,0,0.791719
0,3,0.782083
0,0,0.783229
0,0,0.809115
0,0,0.790417
0,0,0.790261
1,0,0.787553
0,3,0.793438
1,1,0.815573
3,3,0.782553
0,0,0.786146
0,0,0.794167
0,0,0.835052
0,0,0.784584
0,0,0.788125
0,0,0.778906
0,0,0.823958
0,0,0.799948
0,0,0.784844
0,0,0.800312
0,0,0.82823
0,0,0.835782
0,0,0.791979
1,0,0.78
0,0,0.876563
0,0,0.795156
0,0,0.77849
3,3,0.793855
0,0,0.859844
0,0,0.7825
0,0,0.782448
0,0,0.794948
0,0,0.809427
0,0,0.780521
0,0,0.781459
2,2,0.778021
0,0,0.807552
1,1,0.783125
0,0,0.789271
0,0,0.780781
0,0,0.787657
0,0,0.807448
0,2,0.781406
0,1,0.784479
0,0,0.7825
0,0,0.826041
0,0,0.790677
0,0,0.783906
2,2,0.78724
0,0,0.865625
0,0,0.791979
0,0,0.839532
0,0,0.781718
0,0,0.822344
0,0,0.78599
0,0,0.786355
0,0,0.787136
0,0,0.822761
0,0,0.800573
0,0,0.781094
0,0,0.788959
0,0,0.81724
0,0,0.79224
0,0,0.783646
0,3,0.785469
0,0,0.808333
0,0,0.793437
0,0,0.781615
2,0,0.782969
0,0,0.813593
0,1,0.786198
0,1,0.792343
0,0,0.768646
0,0,0.76875
0,0,0.861354
2,2,0.779636
2,2,0.77349
0,0,0.783229
0,0,0.831719
0,0,0.780625
0,3,0.785313
0,0,0.838177
0,1,0.81198
0,0,0.77776
0,0,0.786094
0,0,0.781094
0,0,0.827448
0,0,0.782448
0,0,0.781823
0,0,0.78849
0,1,0.828125
0,0,0.780677
0,0,0.783646
0,3,0.782239
0,0,0.822656
2,2,0.784583
2,2,0.792917
2,2,0.796198
0,0,0.851875
0,0,0.778698
0,0,0.785261
0,0,0.791511
0,0,0.804011
0,0,0.791614
0,2,0.780886
0,0,0.783437
0,1,0.780625
0,0,0.809739
0,0,0.780261
0,0,0.790208
1,0,0.83
0,1,0.824531
0,0,0.7775
0,0,0.795157
0,0,0.793385
0,0,0.843594
1,2,0.804583
0,0,0.791667
2,2,0.782083
0,0,0.844218
0,0,0.795573
0,0,0.787292
0,0,0.782031
0,0,0.885261
2,2,0.785989
1,0,0.780833
0,0,0.77901
0,0,0.82349
0,0,0.779843
0,0,0.784375
0,0,0.793177
0,0,0.807448
0,0,0.789375
0,0,0.79349
0,0,0.780937
0,0,0.819948
0,0,0.787344
0,0,0.791458
0,0,0.779428
0,0,0.782135
0,0,0.87276
0,0,0.782657
0,1,0.787188
0,0,0.782865
0,1,0.813282
0,0,0.778282
0,0,0.77974
0,0,0.777969
0,0,0.862916
0,0,0.785209
0,0,0.787291
0,0,0.792604
0,0,0.833907
0,0,0.784114
0,0,0.781354
0,0,0.785469
0,3,0.805729
0,0,0.783594
0,0,0.777135
3,3,0.778333
0,0,0.832865
0,0,0.799635
0,0,0.788542
0,3,0.783177
0,0,0.800417
0,0,0.770573
0,0,0.775417
0,1,0.764427
0,0,0.780781
0,1,0.800156
0,0,0.822708
0,0,0.791666
0,0,0.783021
0,0,0.851823
0,0,0.785
0,0,0.787135
0,0,0.780261
0,0,0.800886
0,0,0.784427
0,0,0.780104
0,0,0.782916
0,0,0.844896
0,0,0.790885
0,0,0.785209
0,0,0.788646
0,0,0.827604
0,0,0.785156
0,0,0.787136
0,0,0.783541
2,2,0.815209
2,2,0.78927
0,0,0.793178
0,0,0.78349
0,0,0.816198
0,0,0.782448
0,0,0.777292
2,2,0.779636
0,0,0.775104
0,0,0.793229
0,0,0.775209
0,0,0.834843
0,0,0.790677
0,0,0.831979
0,0,0.785937
0,0,0.789114
0,0,0.791458
0,0,0.805886
0,0,0.795156
0,1,0.793125
0,1,0.784635
0,0,0.842083
0,0,0.783333
0,3,0.782552
0,0,0.785261
0,0,0.845365
0,0,0.795729
0,0,0.783125
0,0,0.790105
0,0,0.82
2,2,0.795677
0,1,0.792292
0,0,0.782187
0,1,0.853125
0,0,0.78198
0,0,0.788802
0,0,0.793438
0,0,0.825781
0,0,0.792917
0,0,0.780782
0,0,0.789063
0,0,0.885416
0,0,0.788177
0,0,0.793438
0,0,0.796146
0,0,0.833958
0,0,0.782969
0,0,0.780885
0,0,0.782031
0,0,0.787135
0,0,0.820729
0,0,0.7825
0,0,0.781875
0,0,0.782344
0,0,0.844011
2,2,0.781354
0,3,0.785364
0,0,0.787969
0,0,0.869167
0,0,0.78401
0,0,0.784063
2,2,0.780833
0,0,0.814948
0,0,0.783125
0,0,0.786719
0,0,0.792187
0,0,0.855678
0,0,0.789375
0,0,0.785052
0,0,0.781198
0,0,0.83224
0,0,0.85375
1,0,0.781406
0,3,0.792917
0,0,0.831042
0,0,0.782552
0,0,0.777553
0,0,0.78099
2,2,0.812552
0,0,0.766458
0,0,0.776511
1,1,0.780521
2,2,0.856094
0,1,0.779062
0,0,0.807813
0,0,0.785781
3,3,0.783334
2,2,0.817031
0,0,0.78875
0,2,0.789167
0,1,0.777136
1,0,0.820105
0,0,0.791771
0,0,0.781146
0,0,0.792761
0,0,0.828229
0,0,0.78724
0,0,0.779792
0,0,0.783386
2,2,0.804688
0,0,0.839115
1,0,0.783854
0,0,0.783646
0,0,0.815678
0,0,0.766406
0,0,0.782708
0,0,0.782032
0,0,0.874479
0,0,0.767656
1,0,0.787552
0,0,0.786666
2,2,0.794739
3,0,0.794844
0,0,0.787031
0,0,0.784167
0,0,0.787552
0,0,0.841927
0,0,0.789167
0,0,0.788229
0,0,0.787344
0,0,0.834948
0,0,0.787188
2,2,0.786927
0,0,0.78276
0,0,0.814323
0,1,0.784063
0,0,0.776667
2,2,0.778021
0,0,0.811042
0,0,0.791719
2,2,0.845469
0,0,0.78698
0,1,0.867709
0,0,0.786563
0,0,0.786667
0,0,0.787865
0,0,0.838646
1,0,0.790417
0,0,0.787396
0,0,0.784687
2,2,0.813698
0,0,0.784375
0,0,0.784531
0,0,0.778698
0,0,0.814375
0,0,0.7775
0,0,0.782917
0,0,0.774948
0,0,0.780886
0,0,0.839844
0,0,0.788126
0,0,0.778594
0,1,0.78375
0,0,0.808385
0,0,0.776042
0,0,0.782812
0,0,0.77375
0,0,0.83724
0,0,0.77677
0,0,0.777761
2,2,0.817708
2,2,0.821875
0,1,0.78375
0,0,0.778334
1,0,0.779896
0,0,0.814687
0,0,0.786042
0,0,0.780885
0,0,0.781042
0,0,0.822916
0,0,0.783958
0,0,0.780833
0,0,0.778333
0,0,0.805678
0,0,0.778073
0,0,0.785365
2,2,0.77948
0,0,0.778959
0,2,0.830313
0,0,0.788854
0,0,0.781562
0,0,0.783177
0,0,0.849687
0,0,0.785365
2,2,0.781927
0,1,0.776303
0,0,0.805729
0,1,0.784063
0,0,0.792135
0,0,0.777864
0,0,0.844739
0,0,0.779635
1,1,0.782188
0,3,0.780625
0,0,0.832448
0,0,0.786094
0,0,0.774063
0,0,0.777239
0,0,0.820104
0,0,0.778802
0,0,0.786823
0,0,0.783906
0,0,0.796354
0,0,0.791458
0,0,0.781459
0,0,0.782239
0,0,0.779531
0,0,0.861511
0,0,0.792917
0,3,0.783751
0,0,0.781146
0,0,0.829531
0,0,0.780938
0,0,0.779792
0,0,0.789062
0,0,0.804896
2,2,0.778334
0,0,0.790417
0,0,0.778906
0,0,0.814375
0,0,0.819948
0,0,0.789011
0,0,0.779635
0,1,0.800938
0,0,0.785834
0,0,0.779271
0,0,0.779323
2,2,0.821198
0,0,0.782396
0,0,0.780052
0,0,0.778646
0,0,0.783021
0,0,0.874479
0,0,0.784531
0,0,0.784583
0,1,0.782084
0,0,0.836198
0,1,0.783334
0,0,0.786355
0,0,0.781407
0,0,0.837344
0,0,0.798907
0,0,0.76776
0,0,0.774688
0,0,0.820886
0,1,0.78401
0,0,0.787916
0,0,0.784635
0,0,0.816979
0,0,0.826146
0,0,0.781303
0,0,0.782761
0,0,0.804844
0,0,0.780208
0,0,0.782604
2,2,0.80375
2,2,0.885053
0,0,0.790833
0,0,0.779896
0,0,0.789687
0,0,0.837917
0,0,0.795677
1,0,0.784688
0,1,0.78401
0,3,0.817657
0,0,0.784011
0,0,0.792917
0,1,0.785521
0,0,0.781302
0,0,0.817032
0,0,0.785886
0,0,0.78651
0,0,0.769427
0,1,0.838542
0,0,0.784063
0,0,0.792448
0,0,0.784739
2,2,0.815052
0,0,0.779895
0,0,0.845573
0,0,0.780573
0,0,0.857084
0,0,0.786927
0,0,0.768542
1,1,0.78776
0,0,0.810261
0,0,0.789844
0,0,0.773125
2,2,0.778698
0,0,0.802448
0,0,0.779531
0,1,0.778177
1,0,0.785469
0,0,0.82823
2,0,0.782969
0,0,0.791094
0,0,0.781875
0,0,0.789636
0,0,0.819688
1,1,0.788021
0,3,0.782031
0,0,0.78026
0,1,0.854271
0,0,0.81276
0,0,0.78052
0,0,0.793646
0,0,0.865625
0,0,0.795938
0,0,0.780937
0,0,0.849948
0,0,0.823854
0,0,0.785052
2,2,0.784063
0,0,0.774479
0,0,0.812448
0,0,0.779844
0,0,0.783542
0,0,0.781406
0,0,0.837553
0,0,0.777761
2,2,0.779687
0,0,0.783698
0,0,0.820104
0,0,0.801563
0,0,0.784896
0,0,0.791928
0,0,0.807604
0,0,0.786927
0,0,0.787239
0,0,0.778126
0,0,0.842292
0,0,0.787187
0,0,0.780209
0,0,0.777605
0,0,0.781198
2,0,0.820573
2,2,0.781406
0,1,0.79276
0,0,0.807136
2,2,0.868021
2,2,0.793385
0,0,0.785
0,1,0.785937
0,0,0.877865
2,2,0.795312
0,0,0.781563
0,0,0.78375
0,0,0.823177
0,0,0.788073
0,0,0.79974
0,0,0.78375
0,0,0.841302
0,0,0.798959
0,0,0.779115
0,0,0.786198
0,0,0.909115
0,0,0.79026
0,0,0.790938
0,0,0.792448
0,0,0.812292
0,0,0.788802
0,0,0.782552
0,0,0.789271
1,1,0.824948
0,0,0.793906
0,0,0.778281
0,0,0.779896
0,0,0.835208
0,0,0.793021
0,0,0.850417
0,0,0.78349
0,0,0.832761
2,2,0.785625
0,0,0.784219
0,0,0.7825
0,0,0.780156
0,0,0.802657
0,0,0.789271
0,0,0.791667
0,0,0.776251
0,0,0.862604
1,0,0.789115
0,0,0.78625
0,0,0.785677
0,0,0.83401
0,0,0.785052
0,0,0.779115
0,0,0.787187
0,0,0.81448
0,0,0.790157
1,0,0.794167
0,0,0.787864
0,0,0.822605
2,2,0.779688
0,0,0.77901
0,0,0.786927
0,0,0.836146
0,0,0.797864
1,0,0.846459
0,0,0.788073
2,2,0.825104
0,0,0.785989
0,0,0.791667
0,0,0.791876
0,0,0.852448
0,0,0.788073
0,0,0.779792
0,0,0.788542
0,0,0.809218
0,0,0.781563
0,0,0.790989
0,0,0.78849
0,0,0.789375
0,0,0.803802
0,0,0.787396
2,2,0.780834
0,0,0.789636
0,1,0.840052
2,2,0.786355
0,0,0.787604
0,0,0.77651
0,0,0.810729
0,0,0.782344
0,0,0.780364
0,0,0.779427
0,0,0.830625
0,0,0.78026
0,0,0.777396
0,0,0.824896
0,0,0.854583
0,0,0.784583
0,0,0.788177
0,0,0.792291
0,0,0.804114
0,0,0.782031
0,0,0.781042
0,0,0.799115
0,0,0.800521
0,0,0.782136
0,0,0.794427
0,0,0.79448
0,0,0.780834
0,0,0.836355
0,0,0.794688
0,0,0.808177
0,0,0.79349
0,0,0.839896
0,0,0.785886
0,0,0.783802
0,3,0.793021
3,3,0.829688
0,0,0.797292
2,2,0.786771
0,0,0.776979
0,0,0.85849
0,0,0.794011
1,0,0.774791
0,0,0.779167
0,0,0.947344
0,0,0.791719
2,2,0.789323
0,3,0.784687
0,0,0.821198
0,0,0.783333
0,0,0.782604
1,0,0.794532
0,0,0.816927
0,0,0.780469
0,0,0.781928
0,0,0.780365
0,0,0.801511
0,0,0.778958
0,0,0.784739
0,0,0.789479
0,0,0.796094
0,0,0.785209
0,0,0.788073
0,0,0.781041
0,0,0.780573
0,0,0.883386
0,0,0.794636
0,1,0.783438
0,0,0.781979
0,0,0.815625
0,0,0.785208
0,3,0.781667
0,0,0.777448
0,0,0.829063
0,0,0.853334
0,0,0.781979
0,0,0.793959
0,0,0.841927
0,0,1.198229
0,0,1.129896
0,0,1.001094
0,0,0.985834
0,0,0.980521
0,0,1.071146
0,1,1.128855
0,0,1.020729
1,0,1.227968
0,0,1.015469
0,0,1.013386
0,0,1.122864
0,0,1.003542
0,1,0.944323
0,0,1.042135
0,0,0.951458
0,0,0.950416
2,2,1.033281
0,0,0.962031
0,0,0.948073
0,0,0.967031
0,0,0.982031
0,0,0.951719
2,2,0.94448
0,0,0.99
2,2,0.952031
0,0,0.958959
0,0,1.042917
3,0,0.9675
0,0,0.940417
0,0,1.028334
0,0,1.012969
0,0,0.954271
1,1,0.952083
0,0,0.979948
0,0,0.950677
0,0,0.944115
0,0,1.021614
1,1,0.985364
0,0,0.957969
0,3,0.942761
0,0,1.01125
0,0,0.939167
0,0,0.965834
0,0,1.048542
0,3,0.948177
0,0,0.951719
0,0,0.949219
0,0,1.089844
0,3,0.962916
0,0,0.971875
0,0,1.032396
0,0,0.948802
0,0,0.974011
0,0,1.036562
0,0,0.974011
0,0,0.949062
0,0,0.95375
0,0,0.952708
0,0,0.959166
0,0,1.036042
0,0,1.053803
0,0,0.963125
2,2,0.972604
0,0,1.023073
0,0,0.952396
0,0,0.950834
0,0,1.060677
0,0,0.946406
0,0,0.966927
0,0,0.947188
0,0,0.995053
2,2,0.94849
2,2,0.961927
0,0,0.982031
0,0,0.971927
0,1,0.945729
0,0,0.95573
0,0,1.001459
3,3,0.963594
0,0,0.944792
0,0,0.995625
0,0,0.957448
0,0,0.946251
0,0,0.998594
0,0,0.974531
0,0,0.961146
0,0,0.953907
0,0,1.05599
0,0,0.967761
0,0,1.026875
2,2,1.013333
0,0,0.972136
0,0,0.961562
2,2,1.030782
2,2,0.955729
0,0,0.980521
1,1,0.950364
0,0,1.101406
0,0,0.954167
0,0,0.960208
0,3,1.038386
2,2,0.951615
0,0,0.96125
0,0,0.992031
0,0,0.960208
0,0,0.968281
0,0,0.958855
0,0,1.08323
0,0,0.967396
0,0,0.946094
0,0,1.004323
0,0,0.974636
0,0,0.954427
0,1,1.004167
0,0,0.940989
0,0,0.953646
0,1,0.959843
0,0,1.065261
0,0,0.953386
0,0,1.044375
0,0,1.007136
0,0,0.970364
0,0,0.966927
0,0,1.000261
0,0,0.953958
0,3,0.964583
2,2,0.939635
0,0,1.101823
0,0,0.949375
0,0,0.959219
0,0,0.985313
0,0,0.961771
0,3,0.955678
0,0,0.988854
0,0,0.944948
0,0,0.962916
0,0,0.960157
0,0,1.023855
0,0,0.955365
0,0,0.955365
0,0,1.004063
0,0,0.967344
0,0,0.938125
0,0,1.058542
0,0,0.943073
0,0,0.945781
2,2,0.946354
0,0,1.07901
0,0,0.961042
1,1,1.016563
0,0,1.031302
2,2,0.965104
0,0,0.954792
0,3,1.010729
2,2,0.964531
0,0,0.951042
2,0,0.962135
0,0,1.048334
0,0,0.964219
0,0,0.959063
0,0,1.043177
0,0,0.964531
0,0,0.95651
0,0,1.011042
0,0,0.954115
0,0,0.960052
0,0,0.972969
1,1,1.083802
0,0,0.963281
0,0,0.958073
0,0,1.002605
0,0,0.961563
0,0,0.94724
0,3,0.991667
1,1,0.965
0,0,0.952813
0,0,0.942031
2,2,1.026094
0,0,1.006354
0,0,0.95948
0,3,0.983803
2,2,0.932917
0,0,0.957656
0,0,0.979479
0,0,0.953958
0,0,0.9425
0,0,0.936667
0,0,1.04875
0,0,0.941979
0,0,0.959167
0,0,0.996198
0,0,0.96625
0,0,0.944271
0,0,0.96651
0,0,1.02948
0,0,0.972709
0,0,0.946354
0,0,1.028281
2,2,0.950678
0,0,0.969062
0,0,1.040417
0,0,0.975937
0,0,0.957708
0,3,0.949584
0,0,1.012709
0,0,0.93724
0,1,0.968334
0,0,1.092448
0,1,1.051979
0,0,0.956459
0,0,1.029844
0,0,0.972188
0,0,0.962709
0,1,0.950208
0,1,1.013958
0,0,0.947968
0,0,0.946771
0,0,1.020157
0,0,0.960573
0,0,0.953959
0,0,1.026615
0,0,0.95875
0,0,0.955105
0,0,0.947865
0,0,0.976927
0,0,0.959114
0,0,0.951927
0,0,1.059896
0,0,0.943593
0,0,0.954271
0,0,0.986406
0,0,0.95323
0,0,0.945209
0,0,0.953437
0,1,1.024218
0,0,0.95125
0,0,0.95375
0,0,1.053594
2,2,1.036719
0,0,0.944896
0,0,1.006459
0,0,0.978802
0,0,0.953282
0,0,0.949896
0,3,1.067396
0,0,0.972813
0,0,0.96177
0,0,1.067187
0,0,0.967187
0,0,0.960573
0,0,1.038282
0,1,0.954011
0,0,0.944583
0,1,0.98099
2,2,1.003282
0,0,0.960729
0,0,0.946615
0,0,1.050104
0,1,0.9675
0,0,0.952865
0,0,1.011355
0,1,0.964167
0,0,0.944011
0,0,0.936823
0,0,1.015417
0,0,0.963021
0,0,0.941094
0,0,1.058177
0,0,1.013854
0,0,0.973646
0,0,0.993906
0,0,0.953698
0,0,0.958437
0,0,0.955209
0,0,1.005678
0,0,0.960521
0,3,0.956146
0,0,1.022865
0,0,0.948698
0,0,0.960729
0,1,0.988386
0,0,0.958177
0,0,0.949687
0,0,0.943854
0,0,1.000625
0,0,0.969792
2,2,0.965885
0,0,1.049532
0,1,0.967969
0,0,0.946407
2,0,0.953906
0,1,0.997553
0,0,0.959011
0,0,0.972083
0,0,1.037084
0,0,0.950521
0,0,0.954479
2,2,1.020573
0,0,1.008698
0,0,0.943386
0,0,0.975678
0,0,0.990469
0,0,0.944844
0,0,0.944948
0,0,1.017135
0,0,0.976927
0,0,0.959896
0,0,1.100885
0,0,0.976042
0,0,0.947084
0,0,1.013229
0,0,0.959896
0,0,0.958802
0,0,0.948385
0,0,0.976355
0,0,1.021146
0,0,0.965626
0,0,1.003855
0,0,0.949532
0,0,0.968438
0,0,1.00698
0,3,0.949948
0,0,0.940989
2,2,0.957813
1,1,0.999219
0,0,0.948802
0,0,0.957656
0,0,1.159531
0,0,0.985416
0,0,0.949792
0,0,1.010573
0,0,0.952708
0,0,0.961927
0,0,0.951145
0,0,0.99198
0,0,0.955365
0,0,0.952344
0,0,1.035677
0,0,0.959323
0,0,0.963334
0,0,0.991511
0,0,0.949687
0,0,0.957708
0,0,0.966875
0,0,1.06724
0,0,0.950781
0,0,0.95099
0,0,1.079584
0,0,0.964219
0,3,0.943489
0,0,0.993073
0,2,0.977604
0,0,0.978073
0,0,0.95125
0,0,1.021146
0,0,0.967708
0,0,0.958178
0,0,1.13198
0,1,0.946562
0,0,0.987553
0,0,1.018907
0,1,0.938803
0,0,0.961198
0,0,0.987187
0,0,1.0
0,0,0.939739
0,0,0.964271
0,0,1.077448
0,0,0.938646
0,0,0.953125
2,2,1.022917
0,0,0.963333
0,0,0.952656
0,0,0.959479
0,0,0.990938
0,0,0.956042
0,0,0.953594
0,0,1.011927
0,0,0.955157
0,0,0.958229
0,0,0.999115
0,0,0.955417
0,0,0.967968
0,0,0.961146
0,0,1.006094
0,0,0.959532
0,0,0.961614
0,0,1.186823
0,0,0.956615
0,0,0.957344
0,0,1.024218
0,0,0.948334
0,0,0.954011
0,0,0.949323
0,0,1.042136
0,0,0.96823
0,0,0.960521
1,0,1.013802
0,0,0.994271
0,0,0.954427
2,2,1.005156
0,3,0.978542
0,0,0.9675
0,0,0.958333
0,0,1.01
0,0,0.95474
0,0,0.97177
0,0,1.085573
0,0,0.966042
0,0,0.942812
0,0,1.034011
0,3,0.956928
3,3,0.953334
0,0,0.944375
0,0,1.01599
0,3,0.945729
0,0,0.946563
0,0,1.112031
0,0,0.95698
0,0,0.953178
0,0,0.979167
0,0,0.985626
0,0,0.951406
0,0,0.963386
0,0,1.003125
0,0,0.965312
0,0,0.959584
0,0,1.056094
2,2,0.94974
0,0,0.974844
0,0,0.979531
0,0,0.953021
0,0,0.974167
0,0,0.964844
2,2,0.986042
0,0,0.940157
0,0,0.953958
0,0,1.02375
0,0,0.940938
0,0,0.947448
0,0,0.951927
2,2,1.026614
0,0,0.946979
0,0,0.957604
2,2,1.039792
0,3,0.964115
0,0,0.946511
0,0,1.13349
0,0,0.941719
0,0,0.966511
0,0,0.948282
0,0,0.981458
0,0,0.937813
0,0,0.969896
0,0,0.989323
0,0,0.953958
2,2,0.972656
0,0,1.018334
0,0,0.95125
2,2,0.948438
2,2,0.96323
0,0,1.041407
0,0,0.956928
2,2,0.961666
0,0,1.014219
0,0,0.971562
0,0,0.940677
0,0,1.055052
0,0,0.975625
0,0,0.962708
0,0,0.942396
0,0,1.048334
0,0,0.965208
0,3,0.948698
0,0,1.018594
0,0,0.946979
0,0,0.984219
0,0,1.133854
2,2,0.962708
0,3,0.9525
0,0,0.951042
0,0,0.990573
0,0,0.947865
0,0,0.941406
3,3,1.031666
0,0,0.951406
0,0,0.951094
0,0,1.05224
0,0,0.965886
2,2,0.950469
0,0,0.959688
0,0,0.971927
2,2,0.957135
2,2,0.942865
0,0,0.995833
0,3,0.957188
0,0,0.973229
2,2,0.959896
0,0,1.013698
0,0,0.957552
0,0,0.974427
0,0,1.000156
2,2,0.946198
0,0,0.952083
2,2,1.012552
0,0,0.954791
0,0,1.019219
0,0,0.966562
0,0,1.094583
2,2,0.965625
0,0,0.947136
2,2,1.035416
0,0,0.966407
0,0,0.955833
0,0,0.996198
0,0,0.966718
0,0,0.96375
0,0,0.950937
2,2,1.027188
0,0,0.967656
1,1,0.938125
0,0,1.002083
0,0,0.956615
0,0,0.967656
0,0,0.991458
0,0,0.951719
0,0,0.950052
0,0,0.96724
0,0,1.08224
0,0,0.951406
0,0,0.939636
0,0,1.00125
0,0,0.95099
0,0,0.946667
0,0,0.990312
0,0,0.95625
0,0,0.991615
0,0,0.954219
0,0,1.033073
0,0,0.965782
2,2,0.943594
0,0,0.983281
0,0,0.942657
0,0,0.964011
0,0,0.950209
0,0,1.025833
2,2,0.953646
0,0,0.971094
1,1,1.052656
0,0,0.960469
0,0,0.958386
0,0,0.997344
2,2,0.943802
0,0,0.950052
0,0,0.95552
0,0,1.033646
0,0,0.954844
0,1,0.958593
0,0,1.064636
0,0,0.958854
0,0,0.948699
0,0,1.004739
0,0,0.958698
0,1,0.964063
0,0,0.946563
0,0,0.991407
2,2,1.035677
0,0,0.95323
0,1,1.050156
0,0,0.963646
0,3,0.972604
0,0,0.986823
0,0,0.957552
0,0,0.961458
0,0,0.9675
0,3,1.007032
0,0,0.967344
0,0,0.960521
0,0,1.036875
0,0,0.977031
0,0,0.958333
0,0,1.014636
0,1,0.964375
0,0,0.955312
0,0,0.950105
0,0,1.016667
0,0,0.987448
1,1,0.950678
0,1,1.075208
0,0,0.95474
0,0,0.971875
0,0,1.007239
0,0,0.959583
0,0,0.977864
0,0,0.952448
0,0,1.024948
2,2,1.008438
0,1,0.953073
0,0,1.028177
0,0,0.946042
0,3,0.965469
0,0,0.986198
0,0,0.962865
0,0,0.952761
0,0,0.94677
0,0,1.01224
0,0,0.970365
0,0,0.941927
0,1,1.056667
0,0,0.953542
0,0,0.953385
0,3,1.007448
0,0,0.95474
0,0,0.959739
0,3,0.949479
0,0,0.98849
0,0,0.963125
0,0,0.956979
0,0,1.020521
0,0,0.954792
0,0,0.958698
0,0,0.966094
0,0,1.008906
0,0,0.946719
0,0,0.946458
0,0,1.01599
0,0,1.048229
0,0,0.959219
0,0,1.084375
0,1,0.965417
0,0,0.949896
0,0,1.00125
0,0,0.96448
0,0,0.967552
2,2,0.959375
0,0,0.992969
0,0,0.959791
0,0,0.957188
0,0,1.029531
0,4,0.957501
0,0,0.961458
0,0,0.953229
0,0,0.990208
0,0,0.938073
2,2,0.953333
0,0,1.013021
0,2,0.944844
0,0,0.956459
0,0,1.038177
0,0,0.951511
2,2,0.962761
0,0,0.945261
0,0,0.992761
0,0,0.954479
2,2,0.947656
1,1,1.037969
0,0,0.951042
0,1,0.955521
0,0,1.000989
0,3,0.953021
2,2,0.960417
0,0,0.955104
1,1,0.996823
0,0,0.940261
0,0,0.955521
0,0,0.994895
0,0,0.956458
2,2,0.952604
0,0,0.953646
0,0,1.05651
2,2,0.955625
0,0,0.9375
0,0,1.004271
0,0,0.944427
0,0,0.954688
0,0,0.983333
0,0,0.955573
0,0,0.94198
0,0,0.956875
0,0,1.026614
0,0,0.961718
0,0,0.947344
0,0,0.988177
0,0,0.948334
0,0,0.95448
0,0,1.004167
0,0,1.012188
0,0,0.952552
0,0,0.981667
0,0,1.058802
0,0,0.966666
0,0,0.973386
1,0,1.016146
0,0,0.951771
0,0,0.948177
0,0,0.957708
0,0,1.023958
0,0,0.954896
0,0,0.949219
0,0,1.025417
0,0,0.976042
0,1,0.940573
0,0,0.998646
0,0,0.962813
0,0,0.966563
0,0,0.799688
0,0,0.856094
0,0,0.814375
0,3,0.81776
0,0,0.808177
0,0,0.941718
0,0,0.811614
0,0,0.810417
0,0,0.800677
0,0,0.893907
0,0,0.87875
0,0,0.821927
0,0,0.806667
0,1,0.861198
0,0,0.811511
0,0,0.805
0,0,0.80474
0,0,0.889428
0,0,0.805573
0,0,0.79974
0,0,0.81151
0,0,0.864583
0,0,0.803385
0,0,0.801042
0,0,0.808386
0,0,0.823594
0,0,0.809583
0,0,0.804844
0,0,0.800677
0,0,0.906146
0,0,0.803073
0,0,0.807396
0,0,0.806875
0,0,0.81849
0,0,0.812032
0,0,0.802969
0,0,0.799532
0,0,0.839531
0,0,0.807604
0,0,0.803854
3,0,0.920625
1,1,0.807709
0,0,0.802292
0,0,0.800938
0,0,0.831458
2,2,0.809219
0,0,0.805782
0,0,0.803594
2,2,0.803021
2,2,0.824844
0,0,0.798281
0,0,0.803542
0,0,0.873281
0,0,0.819271
0,1,0.800364
0,0,0.803646
0,0,0.835625
0,4,0.804167
0,0,0.808021
0,0,0.810834
0,0,0.837187
0,0,0.808177
0,0,0.81151
0,0,0.81125
1,0,0.8625
0,0,0.813802
0,0,0.81276
0,0,0.804011
0,0,0.862032
0,0,0.798437
2,2,0.85875
0,0,0.811823
0,0,0.851302
0,0,0.804376
0,1,0.803126
0,0,0.806042
0,0,0.893386
1,0,0.810885
0,0,0.808125
2,2,0.814323
2,2,0.838073
0,0,0.80625
0,0,0.811302
0,0,0.804479
2,2,0.836823
0,0,0.80526
0,0,0.817292
0,0,0.79901
0,0,0.886719
0,0,0.810209
0,0,0.804844
0,0,0.801667
0,0,0.843385
0,0,0.813958
0,1,0.803542
0,0,0.802083
0,0,0.849896
2,3,0.816042
0,0,0.802657
0,0,0.878229
0,0,0.927292
0,0,0.812552
2,2,0.803855
0,0,0.807917
0,1,0.857188
0,0,0.809167
0,0,0.812864
1,0,0.803594
0,0,0.875157
0,0,0.808698
0,0,0.800052
0,0,0.812084
0,0,0.862292
0,0,0.806979
0,0,0.813698
0,0,0.805156
0,0,0.857396
0,0,0.817969
0,0,0.82599
0,0,0.812552
1,1,0.865468
2,2,0.806823
0,0,0.799739
0,0,0.800365
0,0,0.918021
0,0,0.825208
1,0,0.821302
2,2,0.804479
0,1,0.883229
2,2,0.919583
0,0,0.808334
0,0,0.813386
0,0,0.853334
0,1,0.814062
0,0,0.806042
0,0,0.809271
0,0,0.919115
0,0,0.815104
0,0,0.8075
0,0,0.8
0,0,0.884323
0,0,0.809219
0,0,0.810052
0,0,0.799792
0,3,0.834479
0,0,0.804635
0,2,0.806198
0,0,0.811615
0,0,0.937969
0,0,0.814896
0,0,0.805937
0,0,0.816042
0,0,0.855365
0,0,0.800677
0,3,0.816354
0,0,0.813281
0,0,0.841511
0,0,0.81026
0,0,0.810782
0,0,0.939323
0,0,0.816823
0,0,0.818281
3,2,0.818073
1,0,0.869636
2,2,0.850313
2,2,0.810781
0,0,0.804739
0,1,0.908177
0,0,0.807969
0,0,0.813438
0,0,0.816198
0,0,0.909271
0,0,0.807292
0,0,0.80875
0,0,0.828386
0,0,0.85849
0,0,0.831876
0,1,0.805364
0,0,0.821562
0,0,0.853542
0,0,0.806823
0,0,0.815
0,0,0.791146
0,0,0.893854
0,0,0.809531
0,0,0.803907
0,0,0.800209
0,0,0.859948
0,0,0.801511
2,2,0.863854
0,0,0.80599
0,0,0.8475
0,2,0.804011
0,0,0.811614
0,0,0.805104
0,0,0.924219
0,0,0.81948
0,0,0.812344
0,0,0.806041
0,0,0.846406
0,0,0.804219
0,0,0.799427
2,2,0.811927
0,0,0.844896
0,0,0.812083
0,0,0.830416
2,2,0.814115
0,0,0.888438
0,0,0.809844
0,0,0.815833
2,0,0.820416
0,0,0.926666
0,0,0.815521
0,0,0.805521
0,0,0.805938
2,0,0.862969
0,0,0.814167
0,0,0.813177
0,0,0.803698
0,0,1.028073
0,0,0.807917
0,0,0.81151
0,0,0.88276
0,0,0.808698
0,0,0.816302
0,0,0.810937
0,1,0.887656
0,0,0.810052
0,0,0.802604
0,0,0.811928
0,0,0.873438
0,0,0.815365
0,0,0.811094
2,2,0.80849
2,2,0.866355
2,2,0.826719
0,0,0.813073
0,0,0.817135
0,0,0.845885
0,3,0.801771
0,0,0.806979
0,0,0.811667
0,1,0.929583
0,0,0.814948
0,0,0.807396
0,0,0.802969
0,0,0.858907
2,2,0.805417
0,0,0.814063
2,2,0.879844
0,0,0.867032
0,0,0.809583
0,0,0.79875
0,0,0.814896
0,0,0.875468
3,0,0.836146
0,0,0.818489
0,0,0.80099
0,0,0.873802
0,3,0.814948
0,0,0.806927
0,0,0.810833
0,0,0.864948
0,0,0.816458
0,0,0.800417
0,0,0.801927
0,0,0.949687
0,0,0.801458
0,0,0.824323
0,0,0.81125
0,0,0.872916
0,0,0.80276
2,2,0.805625
0,0,0.804167
0,0,0.855625
0,0,0.805156
0,0,0.79849
0,0,0.809115
0,0,0.933594
0,0,0.808542
0,3,0.799635
0,0,0.828854
0,0,0.843438
0,0,0.806094
0,1,0.816771
0,0,0.805053
0,0,0.884114
0,0,0.8025
0,0,0.808177
0,0,0.807448
1,0,0.90198
0,0,0.803854
0,0,0.799167
0,0,0.804167
0,0,0.84448
2,2,0.812552
0,0,0.79974
0,1,0.806458
0,0,0.844219
0,0,0.799062
0,0,0.807813
0,0,0.80349
0,0,0.865573
0,1,0.801355
0,0,0.803334
0,0,0.802032
0,0,0.858021
0,0,0.812396
0,3,0.863437
0,0,0.807916
0,0,0.814636
0,0,0.811875
1,0,0.79901
0,0,0.956146
0,0,0.815261
0,2,0.80474
0,0,0.803854
0,0,0.881406
0,1,0.818854
0,1,0.805208
0,0,0.808125
0,0,0.88401
0,0,0.803125
0,0,0.805937
0,0,0.80323
0,0,0.88276
0,0,0.819167
0,0,0.816667
0,0,0.814531
0,0,0.839688
0,1,0.803594
0,0,0.818334
0,1,0.806459
0,0,0.869844
0,0,0.819584
0,0,0.809219
1,1,0.810885
0,0,0.906146
0,0,0.853698
0,0,0.818802
0,0,0.817812
0,0,0.876823
0,0,0.827865
0,1,0.813437
0,0,0.809115
0,0,0.892812
0,0,0.827552
0,1,0.808854
0,0,0.804531
0,0,0.874375
0,0,0.810156
0,0,0.812604
0,0,0.82401
0,0,0.868385
2,2,0.804844
0,0,0.803594
0,1,0.807343
0,0,0.854167
0,0,0.805729
0,0,0.815469
0,0,0.815782
0,0,0.950417
2,2,0.807656
0,0,0.80698
0,0,0.806563
0,1,0.856302
0,0,0.818125
0,0,0.803646
0,0,0.887553
0,0,0.859115
0,0,0.805833
0,0,0.808333
0,1,0.827396
0,0,0.890365
0,0,0.803125
0,0,0.812396
0,0,0.844687
0,0,0.807135
0,0,0.798698
0,0,0.818021
0,0,0.856927
0,1,0.800209
0,0,0.803021
0,0,0.795782
0,0,0.813229
0,0,0.836354
0,0,0.823594
0,0,0.80526
2,2,0.859427
0,0,0.802552
2,2,0.80698
0,0,0.80625
2,2,0.858333
0,0,0.820156
0,0,0.8125
0,0,0.826615
0,0,0.881667
0,0,0.806406
0,0,0.885416
0,1,0.807604
0,1,0.850885
0,0,0.8075
2,2,0.803073
0,0,0.813229
0,0,0.900469
0,0,0.809635
0,0,0.798385
0,0,0.795208
0,0,0.909062
0,1,0.824166
0,0,0.808646
2,2,0.819532
0,0,0.856666
0,0,0.814167
0,3,0.809375
0,0,0.811615
0,0,0.853698
0,0,0.806042
0,0,0.807813
0,0,0.801198
0,0,0.886198
0,0,0.808281
0,1,0.803959
0,0,0.805833
0,1,0.889375
0,1,0.811563
0,0,0.804115
0,0,0.860313
0,0,0.847239
0,0,0.808385
2,2,0.80625
0,0,0.813958
0,0,0.909219
1,0,0.808438
0,0,0.806823
0,0,0.811771
0,0,0.840469
0,0,0.821875
0,0,0.810261
0,0,0.810417
0,0,0.857604
0,0,0.815937
0,0,0.817656
0,0,0.814271
0,0,0.914167
0,0,0.807604
0,0,0.805209
0,0,0.808229
1,0,0.849792
2,2,0.818437
0,0,0.809792
2,2,0.817865
0,0,0.874323
2,2,0.809011
0,0,0.8
0,0,0.800625
0,0,0.947812
2,2,0.911406
0,0,0.803803
1,1,0.866198
0,0,0.80125
0,0,0.801875
2,2,0.805626
0,0,0.892396
0,0,0.800313
0,0,0.803646
0,0,0.799271
0,0,0.890469
0,0,0.813229
0,0,0.801355
0,0,0.803698
0,3,0.901667
0,0,0.805469
0,0,0.794688
0,0,0.804011
0,0,0.86526
2,2,0.825886
0,0,0.805312
0,0,0.795573
0,0,0.936146
0,0,0.813125
0,0,0.81
0,0,0.803646
0,0,0.896615
0,0,0.819375
0,0,0.815
0,0,0.815625
0,0,0.946927
0,0,0.809427
0,0,0.809948
0,0,0.816042
0,0,0.886251
0,0,0.798177
0,3,0.808907
0,0,0.803229
0,0,0.851302
0,0,0.812552
0,0,0.804167
1,1,0.809844
0,0,0.849166
0,0,0.808229
0,0,0.809583
0,0,0.819792
0,0,0.911614
0,0,0.814375
0,0,0.800105
0,0,0.804323
0,1,0.860677
0,0,1.048646
0,0,0.848229
0,0,0.892448
0,0,0.815885
0,0,0.817708
2,2,0.809167
0,0,0.908489
2,3,0.822187
0,0,0.814844
0,0,0.852343
0,0,0.853542
2,2,0.812917
0,0,0.813281
0,0,0.828854
0,0,0.921302
0,0,0.815677
0,0,0.814218
0,0,0.811927
0,0,0.930364
0,0,0.828542
0,0,0.814635
0,0,0.830833
0,0,0.875938
0,0,0.80474
0,0,0.819843
0,0,0.812709
0,0,0.890312
0,0,0.821562
0,0,0.83026
0,0,0.817917
0,0,0.91198
2,2,0.817343
0,0,0.807396
0,0,0.804531
0,0,0.92375
0,0,0.915678
0,0,0.979427
0,0,0.936927
0,0,0.824844
0,0,10.614376
0,0,0.849427
0,0,0.940729
0,2,0.833646
0,0,0.840157
0,0,0.835833
0,0,0.932865
0,0,0.841979
2,2,0.837605
0,0,0.875052
0,0,0.8725
0,0,0.789063
0,0,0.780573
2,2,0.790678
0,0,1.165209
0,0,0.815573
0,0,0.814791
0,0,0.835782
0,0,0.814271
1,0,0.810364
2,2,0.816302
0,0,0.926198
0,0,0.810678
0,0,0.811198
0,0,0.808698
0,0,0.852865
0,0,0.821407
0,0,0.806823
0,0,0.807761
0,0,0.845573
0,1,0.924791
2,2,0.815937
0,0,0.816094
0,0,0.855156
1,0,0.80875
0,0,0.807344
0,0,0.806562
0,0,1.103958
2,2,0.843021
0,0,0.790885
0,0,0.786718
0,0,0.841511
0,0,0.784531
0,0,0.783437
0,0,0.790417
0,0,0.820468
0,0,0.781407
0,0,0.778594
0,0,0.776094
2,2,0.811667
0,0,0.781511
0,1,0.794791
0,0,0.782813
0,0,0.829948
0,0,0.780834
0,0,0.815677
0,0,0.785937
0,0,0.820781
0,0,0.785885
3,3,0.829792
0,0,0.786771
0,0,0.87198
0,0,0.793646
0,3,0.785365
0,0,0.790261
0,1,0.926354
0,0,0.784688
0,0,0.781719
0,0,0.779219
0,0,0.81198
0,0,0.780469
0,0,0.782553
0,0,0.784583
0,0,0.833021
0,0,0.782552
0,0,0.791667
0,0,0.783698
0,0,0.837031
1,0,0.785834
2,2,0.7875
1,1,0.785261
0,0,0.779323
0,0,0.84099
0,0,0.777917
0,0,0.7875
3,3,0.785937
0,0,0.863802
0,0,0.784219
1,1,0.787239
2,1,0.837604
2,2,0.823802
0,0,0.809323
0,0,0.795052
0,0,0.777083
0,0,0.804636
1,0,0.776041
0,0,0.780989
0,0,0.785052
0,0,0.833438
0,0,0.786198
0,0,0.785729
0,0,0.781094
0,0,0.81625
0,0,0.789427
0,0,0.793802
2,2,0.807917
0,0,0.825104
0,0,0.781093
0,0,0.792031
0,0,0.791458
0,0,0.844219
0,0,0.794792
0,1,0.785573
1,0,0.783646
0,0,0.819166
0,0,0.786146
0,0,0.785104
0,0,0.785781
0,1,0.786146
0,0,0.879688
0,0,0.785365
0,0,0.783229
0,0,0.790052
0,0,0.837709
0,0,0.800104
0,0,0.788229
0,0,0.78224
0,0,0.801771
0,0,0.787917
0,0,0.780989
0,0,0.782656
0,0,0.823021
0,0,0.789063
0,1,0.784219
2,2,0.782969
0,0,0.849792
0,0,0.781719
2,2,0.785312
0,0,0.795782
2,3,0.815729
0,0,0.78375
0,0,0.776198
0,0,0.782031
0,0,0.821875
0,0,0.784896
0,0,0.787604
0,0,0.785313
0,0,0.78349
0,0,0.833489
0,0,0.842864
2,2,0.78599
0,0,0.782812
0,0,0.835834
0,0,0.786823
2,2,0.780261
0,0,0.778281
0,0,0.803125
1,0,0.781563
0,0,0.774635
0,0,0.783646
0,3,0.871042
0,0,0.779896
2,2,0.784844
0,0,0.781979
0,3,0.872761
0,0,0.779948
0,3,0.783073
0,0,0.791823
0,0,0.806876
0,0,0.780052
0,2,0.785
0,0,0.778386
0,0,0.828229
0,0,0.794219
0,0,0.787083
0,0,0.785364
0,0,0.817761
0,0,0.787396
0,0,0.781771
0,0,0.84375
0,0,0.82724
0,0,0.79526
0,0,0.786562
0,0,0.792187
0,0,0.786094
2,2,0.854792
0,0,0.785625
0,0,0.783802
0,0,0.780677
0,0,0.806042
0,0,0.78875
0,0,0.789375
0,0,0.785938
0,0,0.819791
0,0,0.778959
2,2,0.777604
0,0,0.789271
0,0,0.828646
0,0,0.775313
0,0,0.775
0,3,0.779792
0,0,0.809532
0,0,0.784427
0,0,0.779218
0,0,0.775521
0,0,0.828542
0,0,0.775938
0,0,0.784583
0,0,0.840001
0,0,0.846719
0,0,0.802604
0,0,0.784271
0,0,0.788021
0,0,0.805261
0,0,0.793854
0,0,0.799115
0,0,0.7825
0,3,0.795677
2,2,0.811094
0,0,0.787396
0,0,0.781979
0,0,0.785312
0,0,0.838906
0,0,0.790938
0,0,0.784011
0,0,0.789271
0,3,0.832761
2,2,0.790521
0,0,0.787083
0,0,0.780834
0,0,0.821667
0,0,0.792448
0,0,0.782292
0,0,0.783334
0,0,0.845938
0,0,0.78125
0,0,0.781198
0,0,0.778489
0,0,0.84974
0,0,0.801198
0,0,0.784375
0,1,0.786928
0,0,0.806771
0,0,0.782813
0,0,0.780729
0,0,0.785469
0,0,0.793802
0,0,0.793907
0,0,0.792552
0,0,0.787604
1,0,0.788333
0,0,0.797083
0,0,0.788802
0,1,0.776354
0,0,0.777083
0,0,0.811562
2,0,0.779636
0,0,0.772969
0,0,0.781823
0,0,0.840052
0,0,0.795782
0,0,0.78526
0,0,0.788802
0,0,0.806823
0,0,0.768802
0,0,0.783021
0,0,0.78099
0,0,0.821407
0,0,0.830626
0,0,0.786354
0,0,0.782084
0,0,0.823802
0,0,0.790156
0,1,0.781563
0,0,0.784792
0,0,0.820417
0,0,0.784166
0,0,0.78276
0,0,0.781042
0,0,0.784636
0,1,0.826875
0,0,0.791667
0,0,0.787396
0,0,0.785156
0,0,0.855365
0,0,0.790261
0,0,0.783073
0,0,0.786406
0,0,0.829636
0,1,0.794427
0,0,0.785521
0,0,0.782969
0,0,0.815052
0,0,0.781562
0,0,0.771511
0,0,0.778958
0,0,0.812344
0,0,0.783802
0,0,0.843594
2,2,0.787448
0,0,0.826302
2,0,0.792083
0,0,0.783906
2,2,0.79724
0,0,0.810261
0,0,0.787813
0,0,0.788177
0,0,0.786979
0,0,0.785468
0,0,0.855209
0,0,0.781771
0,0,0.78599
2,2,0.785521
0,0,0.814531
0,0,0.779948
0,0,0.784062
0,0,0.790573
0,0,0.812708
2,3,0.792865
2,2,0.781198
0,0,0.794115
0,0,0.836979
0,0,0.785157
0,0,0.785
0,0,0.781355
0,3,0.810625
0,0,0.785052
1,0,0.781406
2,2,0.835833
0,0,0.826771
2,2,0.793854
2,2,0.796927
0,0,0.794792
0,0,0.877917
0,0,0.78224
0,0,0.78776
0,0,0.787084
0,0,0.817032
0,0,0.779896
0,0,0.778333
2,2,0.792396
0,0,0.802396
0,0,0.786198
0,0,0.780729
0,0,0.78651
0,0,0.782083
0,0,0.837501
0,0,0.784584
0,0,0.784375
0,0,0.782448
0,0,0.831719
0,0,0.768698
0,0,0.775834
0,0,0.764323
0,0,0.824948
0,0,0.772083
0,0,0.765781
0,0,0.859167
0,0,0.85
0,1,0.777084
0,0,0.78599
0,0,0.781615
2,2,0.852708
0,0,0.784792
0,0,0.791146
0,0,0.789376
0,0,0.808854
0,0,0.783959
1,1,0.781615
0,0,0.793386
0,0,0.833854
0,0,0.795261
0,3,0.78599
0,0,0.783438
0,1,0.782865
0,0,0.8125
