label,pred,exec_time_ms,pred_0,pred_1,pred_2,pred_3,pred_4
0,0,1.5652179718017578,1.0,2.7720543e-11,2.6691046e-30,1.5594037e-19,3.4e-44
0,0,0.7269382476806641,0.9999945,5.446712e-06,9.383572e-19,7.066239e-15,0.0
1,1,0.6711483001708984,1.1072673e-06,0.9999989,5.933591e-14,1.5743704e-17,1.9860066e-22
0,0,0.6685256958007812,1.0,1.4908197e-08,1.666864e-31,1.873975e-14,1.5082725e-30
2,2,0.6682872772216797,8.939903e-31,3.3447537e-24,1.0,6.413371e-19,6.216747e-39
2,2,0.667572021484375,1.1946582e-23,1.0365118e-17,1.0,4.1831904e-34,0.0
0,0,0.6678104400634766,1.0,4.276422e-09,2.1722916e-17,2.0281207e-11,6.5330605e-25
0,0,0.6682872772216797,0.9999993,7.2456453e-07,1.5469013e-19,6.687077e-14,2.0460922e-27
0,0,0.6697177886962891,0.99997294,2.7026046e-05,2.1081033e-22,1.2892886e-12,8.164051e-34
0,0,0.6711483001708984,0.9999999,7.2329634e-08,2.641746e-21,1.6751567e-16,5.4196395e-22
0,0,0.7112026214599609,0.99897563,0.0010243547,1.0962454e-20,3.7793626e-18,2.277309e-32
0,0,0.8115768432617188,1.0,3.6695313e-23,7.7831676e-16,5.3502264e-16,5.8862363e-16
0,0,0.7419586181640625,1.0,4.6871656e-12,3.3573775e-20,3.493408e-22,3e-45
0,0,0.7719993591308594,1.0,9.116005e-11,2.3087543e-15,2.3198581e-17,2.6015511e-23
0,0,0.7681846618652344,1.0,1.867391e-15,3.6853967e-31,2.7774749e-14,5.9222866e-34
3,3,0.8025169372558594,2.569976e-09,1.630749e-17,2.0138964e-34,1.0,0.0
0,0,0.7345676422119141,1.0,1.3197405e-08,7.645897e-21,3.1927209e-15,2.15189e-29
0,0,0.6754398345947266,0.999984,1.596385e-05,7.8496105e-27,2.719011e-19,9.465494e-38
2,2,0.6704330444335938,1.4676778e-13,1.2588684e-15,1.0,5.1506378e-18,3.78125e-39
1,1,0.6699562072753906,2.0481936e-09,1.0,7.3670436e-16,4.171901e-22,2.3108688e-30
0,0,0.6687641143798828,1.0,2.4043174e-15,3.302527e-13,1.745008e-11,1.984545e-24
0,0,0.6685256958007812,0.9999231,7.683481e-05,2.3308032e-13,2.2479025e-14,2.0730277e-24
0,0,0.6673336029052734,1.0,3.4061746e-15,3.3233326e-26,2.325646e-23,1e-45
2,2,0.7190704345703125,6.249311e-13,2.8904044e-29,0.9107797,0.089220285,6.4132516e-37
0,0,0.6709098815917969,1.0,7.075821e-24,7.9703565e-23,4.484679e-24,1.6775438e-14
0,0,0.6682872772216797,0.99872786,1.9719766e-15,0.0011332389,0.00013892037,9.053e-41
0,0,0.6682872772216797,1.0,2.489785e-13,3.6397168e-20,7.8587e-18,4.0294195e-32
0,0,0.6687641143798828,0.97595197,0.024048,3.760765e-16,3.2187043e-16,7.3289975e-25
0,0,0.6678104400634766,1.0,1.6406464e-08,2.4457433e-21,7.857285e-12,1.335459e-32
0,0,0.6797313690185547,1.0,4.992798e-18,0.0,2.2123344e-38,0.0
0,0,0.6780624389648438,1.0,7.7984963e-10,2.7909875e-12,1.1866003e-09,4.0430285e-18
0,0,0.6682872772216797,0.99999976,1.8757568e-07,2.0608745e-20,4.7436886e-17,4.982777e-30
0,0,0.6721019744873047,0.9999933,6.7346477e-06,1.1943434e-18,9.3775465e-12,4.292257e-19
0,0,0.6685256958007812,1.0,2.2772796e-10,8.3603436e-33,3.0539198e-20,1e-45
0,0,0.6687641143798828,1.0,8.75732e-18,0.0,0.0,0.0
0,0,0.6680488586425781,0.9999989,1.0978661e-06,2.7261e-29,1.5366641e-23,1.54716e-40
0,0,0.6678104400634766,0.9999999,6.1205434e-08,1.1318414e-19,6.978512e-17,2.09245e-40
0,0,0.7154941558837891,1.0,1.0221331e-13,1.2486359e-34,3.8110693e-15,4.237272e-31
0,0,0.6694793701171875,1.0,1.8987023e-15,6.1413906e-13,2.011176e-14,3.9336024e-24
0,0,0.6680488586425781,0.9999999,1.4565089e-13,7.100803e-13,1.4297441e-07,5.378543e-25
0,0,0.667572021484375,0.9988626,2.146615e-07,2.780006e-13,0.0011372007,2.4925346e-19
0,0,0.6690025329589844,0.9999962,3.776671e-06,4.5767663e-37,5.563483e-31,0.0
2,2,0.6680488586425781,5.3537148e-17,2.5707227e-23,1.0,1.3752355e-18,7.1016734e-31
0,0,0.6680488586425781,0.99992573,7.431695e-05,7.810483e-17,2.547057e-15,1.9745435e-24
0,0,0.6682872772216797,0.9999999,1.5507284e-07,1.2906937e-16,5.3919206e-16,2.1337641e-32
0,0,0.6682872772216797,0.9999914,8.545075e-06,8.227844e-15,1.4699792e-17,3.354437e-38
0,0,0.6682872772216797,1.0,1.4297817e-10,3.184693e-30,1.9194232e-20,4.4051537e-33
0,0,0.6680488586425781,0.9999714,1.6838634e-05,5.620189e-09,1.1774235e-05,1.7961832e-09
0,0,0.6692409515380859,0.9977188,0.002281229,1.3302984e-27,4.185578e-17,1.493289e-34
0,0,0.667572021484375,1.0,1.5705132e-27,1.371286e-25,2.054959e-17,3.2942537e-17
0,0,0.6682872772216797,1.0,6.5697527e-24,0.0,8.8024266e-35,0.0
0,0,0.7066726684570312,1.0,9.240797e-13,7.214503e-15,2.3214516e-17,0.0
0,0,0.6694793701171875,1.0,1.6095325e-09,6.7487795e-25,2.1874228e-12,1.4563811e-28
0,0,0.713348388671875,0.99999976,1.9143897e-07,9.881954e-15,4.5700413e-25,3.327e-42
0,0,0.7216930389404297,1.0,1.860204e-14,4.4081418e-20,7.824887e-13,4.2192628e-35
0,0,0.7824897766113281,1.0,1.2815538e-31,2.347352e-13,7.1190875e-16,2.254772e-12
0,0,0.9703636169433594,0.9998591,0.00014093846,5.0096328e-23,6.310605e-16,3.1971032e-26
0,0,0.9698867797851562,1.0,2.0017113e-26,0.0,0.0,0.0
0,0,0.8549690246582031,1.0,8.18523e-11,1.0445465e-23,8.033463e-20,2.9303e-28
0,0,0.7545948028564453,0.9999999,1.3365755e-07,9.138527e-12,9.182519e-09,6.7113922e-34
0,0,0.7426738739013672,0.59709567,0.40290084,7.2965393e-31,3.5019036e-06,3.451434e-36
0,0,0.9160041809082031,0.9510009,0.04899908,1.3800275e-14,4.1265817e-11,1.4042479e-26
2,2,0.8788108825683594,5.060296e-24,1.1618301e-33,1.0,1.2722636e-14,4.904811e-32
0,0,0.8955001831054688,1.0,1.6282862e-11,8.0195566e-29,5.2927875e-20,2.22148e-40
0,0,0.8320808410644531,1.0,1.4722067e-08,6.0533746e-33,7.747861e-15,4.430438e-38
0,0,0.8435249328613281,0.99999,1.0006057e-05,2.5417504e-12,1.0790559e-21,1.1527589e-26
0,0,0.8716583251953125,1.0,1.0172195e-11,1.8921904e-12,8.8273566e-32,3.5063732e-36
0,0,0.8885860443115234,0.99999917,8.0595845e-07,3.1158687e-23,1.0437517e-18,0.0
1,1,0.9479522705078125,1.8989335e-08,1.0,1.4398922e-20,1.675783e-24,1.871213e-30
0,0,0.8513927459716797,1.0,4.1912834e-10,2.245895e-32,2.2546386e-20,2.2354524e-37
0,0,0.7429122924804688,1.0,6.484529e-15,0.0,0.0,0.0
0,0,0.6871223449707031,1.0,1.868772e-09,7.9518674e-14,4.2752043e-14,5.389863e-24
0,0,0.6690025329589844,0.99999475,5.293918e-06,2.2156224e-10,8.332785e-19,4.975219e-27
0,0,0.6697177886962891,0.9999999,8.370881e-16,7.326869e-08,7.857041e-09,1.5128418e-15
0,0,0.6697177886962891,0.99993193,8.1672e-09,1.3755583e-38,6.809286e-05,0.0
0,0,0.6704330444335938,1.0,7.319997e-27,1.0847804e-33,1.799402e-18,0.0
0,0,0.6680488586425781,0.99996984,3.0168565e-05,1.4361452e-21,1.5968638e-10,2.2181672e-29
1,1,0.6678104400634766,0.06939699,0.9306029,2.3327518e-13,6.455956e-08,1.2711736e-22
0,0,0.6673336029052734,1.0,9.4487194e-17,1.9030024e-30,7.498763e-19,1.07937006e-23
0,0,0.6692409515380859,1.0,2.9922473e-13,3.0096057e-18,4.5218926e-22,3.8680003e-22
0,0,0.6690025329589844,1.0,5.053295e-16,2.309368e-25,1.1358936e-28,0.0
0,0,0.6668567657470703,1.0,7.7251255e-14,0.0,5.11857e-12,0.0
1,1,0.667572021484375,4.983338e-07,0.9999995,3.4201253e-18,4.719952e-24,1.1416931e-34
0,0,0.7081031799316406,1.0,3.9067623e-23,5.1694745e-26,4.0723478e-17,4.1416616e-22
0,0,0.6685256958007812,1.0,2.8780546e-21,0.0,5.8633865e-36,0.0
0,0,0.6756782531738281,1.0,2.781606e-13,5.743854e-16,2.1591001e-15,1.3929681e-10
0,0,0.6701946258544922,0.99999714,7.551081e-09,2.6963614e-21,2.8321128e-06,9.661281e-19
0,0,0.6685256958007812,1.0,5.6342793e-25,4.774844e-32,2.642177e-08,0.0
0,0,0.6694793701171875,1.0,3.1065907e-15,1.9290508e-23,1.440558e-26,0.0
0,0,0.6687641143798828,0.99862385,0.0013761616,1.071527e-14,1.7377506e-11,8.874394e-23
0,0,0.6690025329589844,1.0,2.3446851e-28,3.9575907e-26,4.1863891e-16,8.9470136e-20
0,0,0.6706714630126953,1.0,2.2436053e-35,0.0,2.5778353e-36,0.0
0,0,0.6687641143798828,1.0,1.6493907e-12,8.380608e-28,5.046663e-18,2.4766538e-33
0,0,0.6685256958007812,1.0,6.0292486e-32,0.0,1.2129717e-38,0.0
0,0,0.6680488586425781,1.0,2.4894939e-14,2.1860849e-15,2.1217397e-21,1.170537e-39
0,0,0.6685256958007812,1.0,1.4856298e-17,0.0,9.279671e-21,8e-45
1,1,0.6670951843261719,1.5203865e-07,0.9999999,6.607494e-19,4.3534338e-33,0.0
0,0,0.7038116455078125,1.0,2.2502673e-18,1.2120052e-30,2.3873043e-19,0.0
0,0,0.6699562072753906,0.99999285,1.7087631e-06,5.496374e-06,5.7576095e-09,7.1203503e-28
0,0,0.667572021484375,0.99994123,5.8811882e-05,6.923146e-30,1.1429178e-17,3.1670495e-29
2,2,0.6668567657470703,5.259653e-22,2.8275347e-24,1.0,2.3178354e-22,2.1585285e-33
0,0,0.6682872772216797,1.0,1.4198788e-21,0.0,0.0,0.0
0,0,0.6680488586425781,1.0,2.7847968e-09,1.043408e-22,2.1703637e-15,9.0363954e-36
0,0,0.6678104400634766,0.99999964,1.242562e-13,4.0824224e-07,4.7634993e-28,0.0
0,0,0.6685256958007812,0.9998659,0.00013405277,6.248078e-17,1.6929184e-16,2.7537784e-21
0,0,0.6680488586425781,1.0,9.0226505e-14,0.0,1.0809707e-35,0.0
0,0,0.6680488586425781,1.0,1.17114305e-26,1.1214174e-23,5.800258e-26,6.9391607e-35
2,2,0.6673336029052734,3.6602835e-19,4.4045743e-37,1.0,1.8608101e-11,1.7815212e-25
0,0,0.6680488586425781,1.0,5.9807975e-10,6.5936313e-31,3.7014668e-19,2.607868e-25
0,0,0.6682872772216797,1.0,2.1463715e-15,0.0,0.0,0.0
0,0,0.6937980651855469,1.0,5.157471e-10,2.7999176e-24,2.2492774e-13,5.461934e-31
0,0,0.6682872772216797,0.99995995,4.008311e-05,3.1948262e-09,2.2675194e-21,1.7643287e-22
0,0,0.6685256958007812,0.99999285,7.1635995e-06,7.1821014e-16,7.875818e-16,5.1031504e-27
0,0,0.6687641143798828,1.0,1.9562435e-27,2.117386e-32,5.4705683e-31,0.0
0,0,0.6673336029052734,1.0,1.2722382e-12,7.409875e-11,1.1240735e-14,1.3903213e-18
0,0,0.6682872772216797,1.0,7.271692e-09,1.6435744e-35,4.3385553e-29,0.0
0,0,0.6682872772216797,1.0,9.812736e-09,4.3627328e-23,2.9515354e-14,4.5835317e-35
0,0,0.667572021484375,1.0,1.4290335e-23,1.4668787e-15,2.859005e-20,3.0459018e-21
0,0,0.6670951843261719,0.9999999,3.8059843e-11,2.2330781e-34,8.236265e-08,8.158348e-36
0,0,0.6687641143798828,1.0,5.824259e-11,5.788665e-22,7.590265e-16,3.860127e-23
0,0,0.6685256958007812,1.0,1.643602e-17,0.0,1.2261065e-35,0.0
0,0,0.6682872772216797,1.0,2.0860531e-18,7.940567e-20,4.372318e-13,7.915644e-13
0,0,0.6687641143798828,1.0,1.2162074e-20,3.5561263e-25,3.0385073e-15,1.4222273e-19
0,0,0.6716251373291016,1.0,8.944658e-28,1.3791789e-21,0.0,0.0
0,0,0.6923675537109375,0.99998033,1.9700057e-05,0.0,4.6395077e-34,0.0
0,0,0.6682872772216797,1.0,1.5396526e-15,5.27022e-21,2.658683e-19,5.482082e-37
0,0,0.6692409515380859,1.0,2.752735e-10,4.6668547e-38,1.3103041e-24,0.0
0,0,0.6692409515380859,0.99999964,3.8460396e-07,1.3671026e-24,8.393159e-10,2.5561e-41
0,0,0.6673336029052734,1.0,3.2006813e-09,2.966103e-32,4.2967707e-21,2.51e-43
0,0,0.6687641143798828,1.0,2.058433e-11,1.0623536e-21,1.6185424e-14,3.7971078e-23
0,0,0.6682872772216797,1.0,2.774467e-22,7.122284e-26,3.4627863e-37,1.3e-44
0,0,0.6690025329589844,1.0,1.4034382e-10,3.063332e-11,1.6661085e-30,5.990745e-35
0,0,0.6680488586425781,0.9999963,3.6394026e-06,3.3799981e-18,1.8086514e-33,3.1268162e-29
0,0,0.6692409515380859,1.0,8.455239e-12,2.541574e-18,1.2508456e-15,1.8937548e-22
0,0,0.6680488586425781,1.0,3.5909587e-12,4.0223935e-21,1.60285e-14,9.423521e-32
0,0,0.6709098815917969,0.9999385,2.6377242e-12,4.4527053e-09,6.146474e-05,2.214272e-18
0,0,0.6692409515380859,1.0,3.3606973e-08,2.8667641e-24,8.3856685e-11,2.361445e-34
0,0,0.6692409515380859,1.0,4.1599e-08,5.3409674e-24,1.261014e-12,1.9971026e-35
0,0,0.6978511810302734,0.9999999,7.0063406e-11,1.258857e-10,1.4419984e-07,8.6244715e-19
0,0,0.6709098815917969,1.0,2.05335e-12,2.062396e-17,8.427622e-13,2.1576338e-23
0,0,0.6690025329589844,0.99999917,6.2630824e-07,1.3754078e-10,1.5223034e-07,4.8926293e-37
0,0,0.6682872772216797,1.0,9.030449e-18,0.0,2.0033552e-32,0.0
0,0,0.6694793701171875,0.9784185,0.0043670493,5.270416e-20,0.017214395,9.229255e-26
0,0,0.6685256958007812,1.0,1.0507172e-15,1.0888001e-21,1.3954788e-21,1.351e-42
0,0,0.6699562072753906,1.0,8.284394e-09,2.9011442e-08,4.1844875e-13,1.943291e-30
0,0,0.6699562072753906,1.0,1.0527994e-15,4.6679272e-21,1.462006e-17,1.0597427e-21
0,0,0.6685256958007812,0.9999316,4.5816035e-23,2.0911843e-26,6.843291e-05,0.0
1,1,0.6699562072753906,2.8064505e-13,1.0,1.1660729e-21,1.1862241e-25,4.5890753e-36
0,0,0.6716251373291016,0.99992716,7.2883384e-05,1.5311473e-23,2.4926359e-16,5.0115033e-30
0,0,0.6704330444335938,1.0,7.3640067e-09,4.1670988e-29,2.567973e-12,2.822832e-19
0,0,0.6687641143798828,0.9999926,7.4370096e-06,2.3586829e-26,1.7663296e-18,4.5728283e-27
0,0,0.6697177886962891,1.0,3.3245956e-10,1.1630717e-33,1.36892594e-14,1.3e-44
0,0,0.7083415985107422,0.9999505,4.9495375e-05,1.5246368e-24,1.6428934e-25,0.0
0,0,0.6699562072753906,1.0,1.4828082e-12,1.3744935e-14,3.2315003e-16,1.6644497e-38
0,0,0.6692409515380859,0.8631503,2.761344e-11,9.516825e-28,0.13684973,9.211633e-38
0,0,0.6701946258544922,1.0,1.756826e-08,5.290661e-15,2.6176476e-16,3.1412071e-12
0,0,0.6709098815917969,1.0,1.0175468e-16,6.3570324e-19,1.7878422e-37,0.0
0,0,0.6704330444335938,1.0,6.2212797e-24,1.7219061e-12,5.3515657e-34,0.0
0,0,0.6690025329589844,1.0,4.563637e-15,1.5054545e-17,2.5252805e-14,3.8358766e-16
0,0,0.6709098815917969,1.0,2.630792e-08,2.7738868e-13,2.1944601e-12,2.1541424e-27
0,0,0.6680488586425781,1.0,5.6927666e-16,3.5049177e-20,4.9564226e-17,4.1549694e-11
0,0,0.6694793701171875,1.0,8.542869e-13,4.7453465e-28,1.1837238e-26,1.9322922e-37
0,0,0.6682872772216797,0.9999999,1.4638492e-07,1.7519515e-37,3.1577008e-17,0.0
0,0,0.67138671875,1.0,8.7517495e-09,6.639109e-17,6.5451e-13,5.499955e-20
0,3,0.67138671875,0.39792305,8.730578e-06,5.7859144e-28,0.6020682,2.6370528e-31
0,0,0.6699562072753906,0.9999975,2.277018e-06,3.2958037e-25,2.808203e-07,2.9073655e-29
0,0,0.6988048553466797,0.9999865,1.1732771e-05,9.005076e-07,5.4303905e-07,2.7544033e-07
0,0,0.6716251373291016,0.9999429,5.7040157e-05,1.0467471e-18,1.0778117e-14,3.80149e-28
0,0,0.6694793701171875,1.0,3.742464e-15,1.1834288e-21,3.37952e-26,0.0
0,0,0.6692409515380859,1.0,4.5366988e-11,9.59763e-16,1.4718633e-13,1.9827956e-18
0,0,0.6682872772216797,0.9993631,0.0006369435,1.2434601e-18,9.838058e-16,1.48866395e-33
0,0,0.6709098815917969,0.9990671,3.076832e-08,0.0009328431,2.0067555e-15,1.4899669e-18
0,0,0.6690025329589844,1.0,2.511212e-14,0.0,0.0,0.0
0,0,0.6690025329589844,1.0,3.156788e-08,7.1360867e-22,5.149864e-21,5.072516e-29
2,2,0.6680488586425781,3.328623e-11,3.4911956e-15,1.0,1.3146686e-26,6.08e-43
0,0,0.6673336029052734,0.99999964,2.0838731e-18,4.5694516e-16,3.3804923e-07,1.7781711e-35
0,0,0.6687641143798828,1.0,3.321387e-11,4.3110043e-29,3.8173432e-21,0.0
0,0,0.6697177886962891,0.9999999,7.253036e-08,1.84511e-27,9.813454e-19,3.395763e-26
0,0,0.6690025329589844,1.0,2.5599225e-28,6.607468e-27,3.302906e-20,3.173031e-20
0,0,0.6966590881347656,1.0,1.9044057e-09,4.1845768e-35,6.567576e-23,0.0
0,0,0.6701946258544922,1.0,1.540299e-11,5.9795355e-20,8.802724e-21,0.0
0,0,0.6690025329589844,1.0,8.50048e-09,2.0489457e-11,2.7465403e-22,9.863466e-22
2,2,0.6678104400634766,4.9569734e-16,4.316092e-35,1.0,1.2897646e-22,2.925e-42
0,0,0.6687641143798828,1.0,1.127362e-12,9.319616e-21,4.145541e-19,2.2e-44
0,0,0.6685256958007812,1.0,4.3675688e-35,1.3607668e-15,1.2620224e-38,4.745237e-28
0,0,0.667572021484375,1.0,2.0653545e-11,1.9276326e-29,1.6093228e-14,2.4669117e-27
0,0,0.6670951843261719,1.0,5.789257e-12,4.6499286e-19,4.372493e-13,7.2738037e-23
0,0,0.667572021484375,0.99998367,1.6300482e-05,0.0,1.6584432e-34,0.0
0,0,0.6682872772216797,0.9997218,0.0002782049,4.7754084e-25,4.253448e-14,4.5488653e-22
0,0,0.6678104400634766,1.0,3.4165726e-11,3.4882766e-17,1.2418469e-28,1.5581699e-30
0,0,0.6692409515380859,0.9999989,1.1220975e-06,9.511771e-11,1.12773775e-26,2.172146e-34
1,1,0.6687641143798828,1.9080215e-11,1.0,2.8158662e-32,5.4282678e-30,0.0
0,0,0.6682872772216797,1.0,4.1700224e-15,2.1325356e-25,1.6193844e-19,0.0
0,0,0.6918907165527344,0.9993734,0.00062659325,1.24148e-29,1.696952e-16,3.440003e-30
0,0,0.6685256958007812,0.999998,1.6077782e-06,3.2448566e-10,4.6145576e-07,2.2268181e-14
0,0,0.6687641143798828,0.99999845,3.457342e-07,1.2199173e-06,4.663908e-09,6.76924e-25
0,0,0.6680488586425781,1.0,1.3436711e-13,1.07317815e-32,3.6386188e-13,6.544072e-29
0,0,0.667572021484375,1.0,3.787305e-13,3.274605e-19,8.035164e-24,7e-45
0,0,0.6682872772216797,0.99985766,0.00014233954,5.3890966e-24,3.8744337e-15,1.4283801e-27
2,2,0.6682872772216797,3.8683197e-25,1.5861307e-35,1.0,1.19662955e-29,0.0
0,0,0.6694793701171875,0.9999999,1.1253881e-26,4.68276e-08,6.321832e-08,6.807858e-26
0,0,0.6680488586425781,1.0,1.6893683e-12,8.612886e-30,8.092988e-26,2.8633472e-36
0,0,0.6687641143798828,1.0,6.580345e-14,2.0507385e-09,8.728701e-11,1.711848e-25
0,0,0.6694793701171875,1.0,8.328389e-13,0.0,2.5253465e-19,9.2552736e-29
0,0,0.6670951843261719,1.0,2.0532115e-17,1.3784439e-19,8.92151e-15,1.1425547e-22
0,0,0.6694793701171875,1.0,3.4915932e-16,1.6103853e-14,2.443052e-18,1.6011355e-18
0,0,0.6682872772216797,0.99999964,3.0487647e-07,4.106242e-33,1.6907003e-14,4.246e-42
0,0,0.9448528289794922,1.0,2.0058608e-12,2.1740995e-24,1.0188679e-15,8.762519e-36
2,2,0.7228851318359375,7.850323e-11,4.486352e-18,1.0,5.9895455e-24,9.497008e-37
0,0,0.6804466247558594,1.0,2.2713336e-09,1.0129438e-20,5.300676e-17,3.89908e-40
1,1,0.6699562072753906,0.17259063,0.8274094,2.840086e-26,3.8169197e-09,1.0518977e-37
0,0,0.6701946258544922,0.9999958,4.188158e-06,3.781741e-23,8.306542e-09,6.405818e-25
0,0,0.6699562072753906,1.0,2.710996e-12,1.0649666e-21,3.834766e-23,1.0156206e-36
0,0,0.6844997406005859,1.0,7.217673e-14,3.6258885e-34,1.0777924e-19,1.4577752e-22
0,0,0.6754398345947266,0.999998,2.0712218e-06,7.921987e-17,2.9713518e-09,7.289446e-33
0,0,0.6749629974365234,0.9930246,0.006975449,9.946095e-31,2.3271963e-18,1.4936828e-31
2,2,0.6704330444335938,5.250139e-19,2.1253017e-23,1.0,5.7487237e-11,6.0268174e-37
0,0,0.6759166717529297,0.9999974,2.6409234e-06,7.4225287e-34,1.2506079e-16,0.0
0,0,0.6756782531738281,0.99984884,0.00015115,2.8367204e-25,7.747757e-14,2.5599302e-32
0,0,0.667572021484375,1.0,3.895708e-10,2.046296e-28,2.1107123e-21,5.229624e-29
0,0,0.7157325744628906,1.0,4.5332496e-10,1.1273596e-20,1.6750846e-11,2.975594e-28
0,0,0.6749629974365234,0.99999225,1.1756434e-15,4.4607115e-37,7.770361e-06,0.0
2,2,0.6737709045410156,4.0563495e-16,6.140553e-15,1.0,1.8836638e-19,1.6227983e-26
2,2,0.6768703460693359,6.77083e-24,1.3565131e-28,1.0,4.157496e-35,0.0
0,0,0.675201416015625,0.99895966,0.0010402907,8.37581e-30,1.6461152e-14,2.0175543e-37
1,2,0.6754398345947266,9.1466936e-05,3.9390194e-05,0.9998692,2.6117117e-30,8.7211966e-20
0,0,0.6716251373291016,0.99999976,2.1394627e-12,3.652852e-32,1.8330967e-07,8.406e-41
0,0,0.6754398345947266,1.0,2.174944e-14,5.4504822e-14,1.7157908e-17,6.298912e-13
0,0,0.6754398345947266,1.0,2.7300923e-19,2.1216986e-29,1.6137945e-15,2.0135161e-30
0,0,0.6692409515380859,1.0,1.3021626e-08,3.5829265e-31,0.0,0.0
0,0,0.6694793701171875,1.0,4.2397217e-35,6.6501865e-32,2.1118666e-26,0.0
0,0,0.6783008575439453,1.0,1.8285218e-23,0.0,0.0,0.0
0,0,0.6761550903320312,0.99221826,0.0077817957,4.052734e-30,7.902647e-12,3e-45
0,0,0.6780624389648438,1.0,5.744923e-10,1.4293158e-17,1.5800279e-09,2.2145575e-28
3,3,0.6852149963378906,1.23442715e-20,7.618237e-29,3.4103345e-38,1.0,0.0
0,0,0.6787776947021484,0.9999964,3.5860219e-06,1.0095316e-17,1.7241595e-14,2.5973857e-24
0,0,0.6768703460693359,1.0,1.7175896e-27,0.0,6.154066e-36,0.0
0,0,0.6744861602783203,1.0,9.259892e-12,2.965006e-24,1.5742396e-25,0.0
1,1,0.6732940673828125,7.2209434e-05,0.99992776,4.1279826e-17,4.796016e-19,5.236548e-38
0,0,0.6797313690185547,0.9999999,3.4796012e-15,1.6248906e-07,2.9148128e-14,4.1420213e-16
0,0,0.6759166717529297,1.0,1.5549682e-13,4.8690646e-21,3.7731655e-17,2.8708346e-24
0,0,0.6735324859619141,1.0,1.15723555e-08,1.1580193e-12,1.21566185e-17,2.1295664e-19
0,0,0.6740093231201172,1.0,1.1288302e-22,5.116275e-24,3.2230396e-14,1.5584766e-18
0,0,0.6756782531738281,1.0,5.281012e-19,9.346966e-12,7.583315e-17,1.6166816e-18
1,1,0.6799697875976562,2.437181e-12,1.0,8.980945e-18,6.5256606e-11,1.7865042e-16
0,0,0.6778240203857422,1.0,1.009047e-08,1.2141494e-12,3.2181934e-29,1.1852228e-35
0,0,0.6742477416992188,1.0,1.9899357e-16,0.0,0.0,0.0
2,2,0.7245540618896484,6.851e-19,6.3513716e-23,1.0,3.5466977e-17,8.635246e-32
2,2,0.6718635559082031,6.403378e-25,5.8296127e-31,1.0,8.417983e-32,9.189339e-38
0,0,0.6701946258544922,0.9998983,0.00010154971,5.1238415e-12,9.028577e-08,3.3127634e-21
0,0,0.6737709045410156,1.0,8.632477e-18,0.0,1.7627909e-38,5.976958e-35
0,0,0.6771087646484375,1.0,0.0,1.536411e-34,4.510435e-30,0.0
0,0,0.6759166717529297,0.99999547,1.7585445e-12,4.5546717e-06,1.1987715e-10,7.882035e-22
2,2,0.6780624389648438,2.8593985e-27,4.703373e-28,1.0,6.008054e-33,9.7038847e-29
0,0,0.6773471832275391,0.99991775,7.625756e-20,1.1005183e-30,8.219139e-05,7.692278e-21
0,0,0.6763935089111328,1.0,8.5846913e-19,2.8762903e-19,5.4616766e-19,2.4458742e-28
0,0,0.6687641143798828,1.0,7.5576724e-24,7.144493e-25,9.280622e-22,4.3405796e-19
0,0,0.6687641143798828,1.0,2.9495351e-12,1.1642971e-25,2.1100671e-22,0.0
0,0,0.6728172302246094,1.0,3.905722e-10,1.1696697e-26,6.335204e-09,2.086994e-39
0,0,0.6737709045410156,0.99996865,3.1360734e-05,3.2675015e-27,7.7275345e-18,4.538083e-28
0,0,0.7171630859375,0.999995,4.9836885e-06,8.327478e-12,5.46425e-13,2.1657311e-21
2,2,0.6773471832275391,1.958337e-24,4.1483265e-26,1.0,6.3647667e-21,1.0318975e-29
0,0,0.6694793701171875,1.0,4.8712648e-14,8.387197e-28,3.874349e-23,0.0
0,0,0.6692409515380859,1.0,2.8401972e-10,2.8403424e-26,1.5907911e-19,3.625721e-27
1,1,0.6694793701171875,7.388747e-11,1.0,1.4641336e-23,1.824819e-26,9.851707e-35
0,0,0.6682872772216797,1.0,2.0844148e-14,0.0,0.0,0.0
0,0,0.6685256958007812,0.99999976,3.8207526e-09,1.5981738e-09,2.4082735e-07,6.0168035e-21
0,0,0.6704330444335938,0.99999964,3.7229415e-07,2.6120395e-17,1.2467181e-10,2.543065e-19
3,3,0.6697177886962891,4.686402e-10,6.1761136e-17,4.6499477e-26,1.0,4e-45
2,2,0.6685256958007812,9.57848e-07,5.0669564e-16,0.99999905,1.1985555e-15,1.262542e-29
2,2,0.6685256958007812,2.9933873e-14,5.0660284e-18,1.0,2.8779622e-24,9.88419e-28
0,0,0.6694793701171875,1.0,5.717978e-13,1.10500215e-20,8.961821e-24,3.9e-44
0,0,0.6685256958007812,1.0,5.2111445e-29,1.1070429e-30,4.5784775e-22,0.0
0,0,0.6711483001708984,0.99999857,5.6064413e-14,0.0,1.4633288e-06,0.0
0,0,0.7011890411376953,1.0,2.875952e-33,0.0,6.69181e-27,2.4586e-41
2,2,0.6716251373291016,6.5105597e-21,9.468107e-22,1.0,1.5343996e-22,8.221154e-26
0,0,0.6690025329589844,0.9999987,1.3152169e-06,1.0388601e-28,5.7183186e-21,0.0
0,0,0.6692409515380859,1.0,1.7363979e-12,6.680726e-16,2.0893004e-20,9.9312325e-23
0,0,0.6697177886962891,1.0,6.382366e-22,9.570401e-37,1.0711576e-17,1.982963e-39
0,0,0.667572021484375,1.0,5.8182135e-09,3.5392095e-10,1.4009919e-24,7.231781e-37
0,0,0.6668567657470703,1.0,1.5184273e-15,2.1794217e-13,1.0659007e-11,3.3103243e-19
0,0,0.6682872772216797,1.0,2.7787687e-21,1.3499818e-22,1.2869144e-14,1.9185747e-19
0,0,0.6673336029052734,1.0,1.3212988e-09,7.82471e-20,1.7941465e-16,1.1234e-41
0,0,0.667572021484375,1.0,0.0,0.0,7.646481e-36,0.0
0,0,0.6680488586425781,0.99589527,0.0041045905,9.116705e-16,1.0950611e-07,8.169681e-20
2,2,0.6692409515380859,4.7454718e-21,2.117346e-24,1.0,9.039412e-25,4e-45
2,2,0.6682872772216797,0.0011431583,8.870555e-07,0.99885595,1.1979412e-08,1.549464e-20
0,0,0.6690025329589844,0.99927396,0.00072610273,1.9329398e-28,4.777586e-25,9.522407e-33
0,0,0.6923675537109375,0.99800545,0.0019945172,5.114398e-30,7.327117e-10,3.09208e-40
0,0,0.6697177886962891,1.0,1.9620618e-23,4.8970785e-37,3.844492e-23,0.0
1,1,0.6687641143798828,4.1755047e-08,1.0,2.314021e-09,4.2884566e-19,9.778449e-32
0,0,0.6692409515380859,0.99940956,0.00059042673,0.0,1.1608301e-32,0.0
0,0,0.6709098815917969,0.99795616,0.0020438617,9.737993e-21,5.170066e-16,4.2206417e-35
0,0,0.6678104400634766,0.99999976,2.4073367e-07,2.4000474e-37,2.8744156e-33,0.0
0,0,0.6687641143798828,0.9999994,6.808715e-10,5.834691e-07,5.199371e-12,2.9527228e-17
0,0,0.6685256958007812,1.0,2.6183106e-13,1.8850503e-20,2.0470772e-20,7.988621e-30
0,0,0.6701946258544922,1.0,4.1230168e-13,3.73639e-21,3.6864604e-26,3.3674142e-31
0,0,0.6687641143798828,1.0,3.4902823e-27,0.0,4.4945362e-35,0.0
0,0,0.6682872772216797,0.9998585,0.00014143871,1.2580994e-12,9.577186e-15,1.761644e-19
0,0,0.6694793701171875,1.0,2.0101953e-09,8.286492e-25,1.2751343e-19,2.2823462e-28
0,0,0.6687641143798828,0.9999844,1.5602918e-05,1.1831144e-10,9.167948e-22,8.0547925e-26
0,0,0.6685256958007812,0.99999416,5.835192e-06,4.8793823e-33,9.293659e-18,6.781819e-34
3,3,0.6933212280273438,2.0935842e-09,5.766554e-20,1.8956747e-06,0.9999981,6.668064e-37
2,2,0.6690025329589844,1.357041e-13,0.0,1.0,8.3944907e-29,3.6e-44
0,0,0.6678104400634766,1.0,3.8865078e-20,1.1024468e-27,4.8233864e-20,3.6104577e-26
2,2,0.6687641143798828,2.53583e-19,3.5291362e-34,1.0,0.0,0.0
0,0,0.6682872772216797,0.99885,0.0011499549,9.821707e-19,1.3103698e-18,5.6773604e-29
0,0,0.6682872772216797,0.9959288,0.004071112,2.532248e-20,1.1368742e-12,1.5133476e-30
0,0,0.6685256958007812,1.0,3.712345e-13,9.8805296e-14,1.8368668e-18,3.3782803e-27
0,0,0.667572021484375,1.0,9.829464e-09,2.6230632e-10,5.1386458e-26,6.121519e-36
0,0,0.6687641143798828,1.0,8.679477e-15,1.040736e-08,3.779521e-08,2.0452469e-31
0,0,0.667572021484375,1.0,3.6615255e-12,2.5416778e-09,6.4861616e-15,2.230056e-19
0,0,0.6670951843261719,1.0,1.6165943e-08,1.1398437e-09,4.8037993e-14,2.0835298e-20
0,0,0.667572021484375,1.0,7.654198e-10,3.6388696e-20,1.5113833e-22,4.982584e-39
0,0,0.6678104400634766,1.0,1.5242517e-14,1.8860285e-20,2.9741926e-13,5.369419e-18
0,0,0.6680488586425781,1.0,1.5023225e-09,0.0,2.393157e-20,0.0
0,0,0.7007122039794922,1.0,4.550479e-22,0.0,0.0,0.0
0,0,0.6685256958007812,1.0,9.700685e-10,1.9164631e-13,4.820976e-28,4.55246e-36
2,2,0.667572021484375,7.1903517e-23,0.0,1.0,9.336727e-22,8.69e-43
0,0,0.6690025329589844,0.9999994,1.4667859e-07,2.4832345e-20,4.361767e-07,5.3119764e-36
0,0,0.6690025329589844,1.0,8.662442e-15,1.2445871e-22,5.640734e-24,0.0
0,0,0.6687641143798828,0.5622422,0.43775776,3.8640737e-21,4.3987244e-14,1.0328457e-35
0,0,0.6673336029052734,0.968465,2.8774214e-12,1.909375e-09,0.03153507,3.6477596e-16
0,0,0.6673336029052734,1.0,2.0728037e-09,7.36695e-11,2.7923787e-30,8.267626e-36
0,0,0.6690025329589844,1.0,1.2313317e-10,7.584295e-18,2.567926e-18,7.803767e-24
0,0,0.6678104400634766,0.9581137,0.041886333,7.9298326e-26,1.4228872e-16,1.8286356e-29
0,0,0.6694793701171875,1.0,5.4174777e-08,1.0698478e-15,1.2941413e-14,1.3443083e-22
0,0,0.6680488586425781,1.0,3.3329456e-17,2.5979621e-30,3.630726e-15,4.642915e-24
0,0,0.6694793701171875,1.0,1.7239616e-14,7.069711e-20,2.000824e-20,0.0
0,0,0.6687641143798828,1.0,7.956252e-18,9.234338e-19,2.6867602e-35,0.0
0,0,0.6706714630126953,0.9999963,3.2295537e-16,3.6632973e-06,4.5992834e-18,1.2180163e-23
0,0,0.6678104400634766,1.0,3.050308e-14,6.772327e-17,2.1217789e-22,1.4944923e-23
0,0,0.6685256958007812,0.75664777,0.24335223,1.910236e-12,5.4871244e-16,2.188653e-33
0,0,0.6678104400634766,1.0,5.931926e-13,0.0,1.3680916e-28,1.2369042e-31
0,0,0.6670951843261719,1.0,6.422508e-10,3.6910088e-32,2.8609295e-17,6.5014967e-22
0,0,0.6692409515380859,0.9999999,1.6223001e-07,4.9463544e-17,8.754682e-10,1.165125e-22
0,0,0.6680488586425781,0.99999917,8.2537815e-07,8.9222005e-34,3.8421896e-29,0.0
0,0,0.6673336029052734,0.99961555,0.0003844326,5.929197e-23,8.6418735e-18,7.3436475e-31
0,0,0.6670951843261719,1.0,4.577963e-18,1.1436201e-12,7.05798e-15,7.512952e-22
0,0,0.6678104400634766,1.0,1.8254219e-10,5.480804e-23,5.6654567e-13,1.19535945e-24
0,0,0.6680488586425781,1.0,2.6903875e-11,1.9419259e-32,1.19288e-19,1.3e-44
0,0,0.6673336029052734,1.0,3.1203713e-13,1.1979994e-22,6.988848e-25,4.83e-43
0,0,0.6673336029052734,1.0,2.9481187e-19,5.645511e-17,5.4455897e-21,1.0735472e-23
0,0,0.6906986236572266,1.0,1.427343e-10,3.061355e-09,2.1021609e-15,1.300447e-20
2,2,0.6701946258544922,9.2956565e-27,1.5929738e-31,1.0,2.97583e-30,0.0
0,0,0.6682872772216797,1.0,2.948022e-31,0.0,2.9486333e-36,7.10004e-40
0,0,0.6685256958007812,1.0,9.9247674e-21,2.364327e-29,9.972577e-38,0.0
0,0,0.6682872772216797,1.0,6.5725054e-14,8.606698e-18,1.0628537e-18,3.8968586e-18
0,0,0.6680488586425781,0.99986184,0.0001381451,6.760997e-30,1.474843e-14,3.7116463e-25
0,0,0.6687641143798828,0.98628926,0.013710793,1.7246808e-11,3.0772834e-13,1.4300066e-19
0,0,0.6692409515380859,1.0,3.6887268e-10,2.7096417e-27,1.6031125e-22,6.3e-44
0,0,0.6670951843261719,1.0,6.2962984e-23,6.20978e-24,4.653988e-21,2.0140442e-17
0,0,0.6678104400634766,1.0,1.111477e-08,0.0,0.0,0.0
0,0,0.667572021484375,1.0,2.4238077e-19,0.0,1.5155695e-29,5.323594e-32
0,0,0.6694793701171875,1.0,5.9345178e-09,1.7031021e-31,4.2756728e-16,6e-45
0,0,0.6697177886962891,1.0,4.983308e-16,5.2246645e-12,1.1775039e-19,8.646865e-21
0,0,0.6692409515380859,1.0,2.7797326e-14,2.0361418e-36,1.0901449e-09,0.0
0,0,0.6902217864990234,0.9999994,5.488953e-07,5.0200546e-23,1.5108074e-20,1.3696e-41
1,0,0.6685256958007812,0.9998288,0.00017111294,2.7498066e-11,2.0908738e-26,1.5605221e-20
2,2,0.6687641143798828,1.2892171e-13,9.189869e-11,1.0,1.7314742e-15,4.5461257e-21
0,0,0.6685256958007812,0.99921846,0.0007815765,0.0,3.0447388e-30,0.0
0,0,0.6685256958007812,1.0,2.653517e-33,0.0,0.0,0.0
0,0,0.6670951843261719,1.0,1.1287194e-20,3.12288e-23,2.341187e-16,2.4824337e-10
0,0,0.6678104400634766,1.0,1.1798372e-27,0.0,5.9515864e-29,0.0
0,0,0.6692409515380859,0.9999958,4.129877e-06,0.0,1.5895435e-31,0.0
0,0,0.6687641143798828,0.99999905,9.1993667e-07,5.0135126e-21,7.660524e-19,2.8381312e-25
0,0,0.6692409515380859,1.0,1.1954934e-10,1.9593996e-30,3.0239999e-12,3.9414572e-32
0,0,0.6685256958007812,0.99842536,0.0015741093,7.450672e-15,4.8727486e-07,7.669989e-22
1,1,0.6678104400634766,1.2515814e-05,0.9994855,0.00050199823,1.3538388e-16,2.0780187e-23
2,2,0.6680488586425781,8.055417e-17,1.15832515e-33,1.0,1.5279856e-15,5.3907296e-23
0,0,0.6682872772216797,0.9999994,5.6855293e-07,8.674459e-26,6.1336544e-19,1.02e-43
0,0,0.6945133209228516,0.9999982,1.7497985e-06,8.662123e-24,2.4378128e-28,0.0
0,0,0.6692409515380859,1.0,9.737782e-21,3.480284e-27,1.5787294e-13,1.6453515e-25
0,0,0.6687641143798828,0.9999999,1.2323555e-07,1.6366327e-16,1.2967682e-17,3.178918e-13
2,2,0.6687641143798828,1.4394279e-24,6.8581754e-31,1.0,5.8266215e-20,8.58e-43
0,0,0.6680488586425781,0.9981281,0.0018718551,1.2205827e-16,1.6964797e-13,8.103757e-35
1,1,0.6682872772216797,4.095654e-07,0.99999964,2.0714885e-15,7.80927e-14,7.142385e-34
0,0,0.6673336029052734,0.99972945,8.016698e-14,1.185664e-05,2.4864308e-05,0.00023386443
0,0,0.6670951843261719,1.0,1.8543291e-08,6.8305585e-29,2.846156e-26,5.0826723e-34
0,0,0.6692409515380859,1.0,8.874537e-14,1.3653933e-13,1.8829942e-13,1.4253794e-09
1,1,0.6682872772216797,7.692011e-11,1.0,1.2557244e-19,6.6948564e-17,1.768315e-36
0,0,0.6678104400634766,1.0,3.8332185e-14,2.7732615e-29,5.82543e-17,3.2794133e-29
0,0,0.6690025329589844,0.9999875,1.2557486e-05,1.1293408e-31,6.872853e-18,1.7577874e-29
2,2,0.6682872772216797,1.163521e-16,7.414957e-13,1.0,4.520407e-23,8.77374e-40
0,0,0.6678104400634766,0.999997,1.4060873e-28,4.3178403e-09,2.9433306e-06,1.9587259e-25
0,0,0.7014274597167969,0.9999999,6.4074634e-08,6.748866e-22,2.58316e-21,2.5315702e-24
0,0,0.6709098815917969,1.0,2.4231009e-30,0.0,6.2715966e-19,8.972456e-32
0,0,0.6709098815917969,1.0,1.9658488e-08,2.8279534e-33,8.790366e-23,0.0
0,0,0.6697177886962891,1.0,1.9589456e-13,7.491452e-13,1.5750151e-09,3.84663e-32
0,0,0.6685256958007812,1.0,7.450217e-16,1.374645e-11,1.3015235e-21,8.53925e-21
0,0,0.6682872772216797,1.0,7.025493e-18,3.6511474e-20,7.044626e-26,0.0
0,0,0.6666183471679688,1.0,3.284158e-14,1.10584353e-16,8.983832e-16,1.27880644e-20
0,0,0.6673336029052734,0.9999553,4.4758053e-05,1.3303934e-29,3.5015343e-12,0.0
0,0,0.667572021484375,1.0,4.8479807e-18,2.1712693e-20,3.2144828e-17,0.0
0,0,0.6678104400634766,1.0,4.342509e-08,3.4811896e-18,1.1253181e-21,2.3430622e-24
2,2,0.6690025329589844,1.11416945e-10,3.0773883e-14,1.0,6.338676e-27,4.044608e-30
2,2,0.6680488586425781,5.733403e-19,7.5673274e-19,1.0,5.020876e-25,1.7841468e-32
0,0,0.6725788116455078,1.0,2.8971918e-26,5.2249453e-19,8.890843e-20,4.211184e-23
0,0,0.6756782531738281,1.0,5.407861e-10,1.1625523e-26,1.2471616e-13,3.7483395e-28
0,0,0.7038116455078125,1.0,1.1292995e-30,0.0,8.6575245e-29,1.4e-44
2,2,0.6711483001708984,2.1879243e-11,5.121106e-13,0.9999999,5.4294e-17,6.805051e-08
0,0,0.6701946258544922,1.0,1.8680362e-26,0.0,2.6743954e-29,2.5380988e-38
0,0,0.6680488586425781,1.0,8.0443537e-19,4.0441457e-15,3.6192695e-11,1.2628659e-14
0,0,0.6680488586425781,1.0,3.0342886e-09,7.296902e-11,5.406707e-17,1.4602683e-15
2,2,0.667572021484375,3.3182114e-28,1.619247e-36,1.0,1.3411537e-29,0.0
0,0,0.6678104400634766,0.99999714,3.1474905e-19,0.0,2.8161955e-06,0.0
0,0,0.6690025329589844,1.0,1.110725e-19,0.0,0.0,0.0
1,1,0.6685256958007812,1.7652939e-08,1.0,1.1850156e-19,1.7538859e-20,4.583906e-32
0,0,0.6682872772216797,0.9995554,0.00044462338,1.7692596e-17,9.050934e-10,6.346694e-27
0,0,0.6687641143798828,0.99999964,3.3854252e-07,4.5769657e-18,5.5537502e-15,1.648327e-27
0,0,0.6670951843261719,1.0,7.511555e-09,6.2096817e-10,7.305312e-15,9.192418e-17
0,1,0.6685256958007812,1.3888528e-07,0.9999999,8.697064e-25,6.8290304e-11,3.1120344e-30
0,0,0.6983280181884766,1.0,3.2327463e-08,5.2328404e-09,2.4287687e-19,2.9599136e-21
2,2,0.6692409515380859,3.059968e-15,1.6960336e-33,1.0,3.894517e-15,9.681057e-32
0,0,0.6690025329589844,1.0,7.443293e-14,2.5316563e-10,1.1749273e-36,9.795e-42
2,2,0.6687641143798828,5.0152156e-15,9.366163e-36,1.0,0.0,0.0
0,0,0.6692409515380859,1.0,4.13807e-18,5.1870287e-21,1.0951342e-24,1.6598172e-20
0,0,0.6685256958007812,1.0,1.0336994e-19,7.1184877e-13,4.814866e-16,1.2221438e-24
0,0,0.6690025329589844,1.0,5.3180953e-09,1.8018275e-17,1.1321196e-16,3.7419603e-17
0,0,0.6668567657470703,1.0,1.1229369e-08,3.4141833e-33,5.418392e-25,0.0
0,0,0.6692409515380859,1.0,4.8953844e-12,6.1970614e-20,8.264917e-28,1.013741e-39
0,0,0.6678104400634766,1.0,6.155109e-25,1.1466181e-25,5.8294284e-18,3.6554796e-21
0,0,0.6692409515380859,1.0,1.098547e-19,0.0,0.0,0.0
0,0,0.6704330444335938,1.0,2.9752215e-08,4.3896977e-21,3.803452e-11,5.123886e-26
0,0,0.6690025329589844,1.0,5.690428e-10,1.5494075e-10,2.0487407e-28,4.7857016e-36
1,1,0.667572021484375,1.0139429e-09,1.0,1.0611449e-24,3.0998926e-29,0.0
0,0,0.6930828094482422,1.0,5.5886307e-10,1.7648142e-25,5.02139e-11,1.2532817e-22
0,0,0.6706714630126953,0.9999999,1.02569085e-10,8.3650576e-08,2.541114e-10,3.4540246e-11
0,0,0.6682872772216797,1.0,1.1098038e-15,2.6966626e-17,1.7837215e-21,9.966441e-25
0,0,0.6706714630126953,1.0,5.8707834e-17,4.750989e-24,3.7804487e-13,3.4725116e-20
0,0,0.6704330444335938,0.92165655,0.078343265,2.6900963e-07,3.982062e-12,9.586488e-09
0,0,0.6690025329589844,0.99999917,8.4666954e-07,6.961406e-11,1.7814456e-17,6.513978e-22
0,0,0.6692409515380859,1.0,4.43171e-10,2.914748e-13,6.917475e-09,2.206247e-25
0,0,0.6697177886962891,0.9999999,6.6698924e-08,1.323391e-22,2.2697968e-12,7.407e-41
0,0,0.6697177886962891,1.0,6.938061e-13,5.7527315e-17,1.0513752e-14,5.1861313e-16
0,0,0.6692409515380859,1.0,4.895621e-22,3.0323828e-22,4.408911e-22,1.186503e-20
0,0,0.6690025329589844,1.0,9.739717e-09,5.318804e-17,7.1564436e-24,3e-45
0,0,0.6682872772216797,1.0,2.0065828e-13,1.861961e-14,1.1642103e-14,2.1256192e-29
0,0,0.6694793701171875,1.0,3.880577e-15,3.9264936e-18,2.9588278e-15,1.9744546e-11
2,2,0.6680488586425781,6.7788763e-10,1.2982788e-16,1.0,6.1400955e-19,1.6381334e-29
0,0,0.6952285766601562,1.0,1.4592029e-10,2.1180154e-25,9.2811145e-15,2.0967793e-37
0,0,0.6706714630126953,0.9954574,3.99381e-09,9.916048e-07,0.0045415997,3.2119043e-08
0,0,0.6694793701171875,1.0,1.1840475e-21,5.515011e-23,2.031437e-24,9.444529e-19
0,0,0.6690025329589844,1.0,6.2401082e-15,1.6119703e-11,9.332518e-16,2.1349535e-13
0,0,0.6692409515380859,1.0,1.0397893e-20,1.6567843e-16,1.6759568e-15,1.3120058e-22
2,2,0.6692409515380859,1.6132332e-24,2.525522e-25,1.0,4.9820066e-12,2.4643778e-30
0,0,0.6687641143798828,1.0,2.3279406e-19,5.700065e-17,0.0,0.0
0,0,0.6685256958007812,1.0,2.8464175e-10,2.0007344e-18,3.1321882e-14,1.2241486e-34
0,0,0.6687641143798828,0.9994777,0.00024296377,0.00027941045,2.1114743e-09,3.442502e-15
0,0,0.6690025329589844,1.0,1.6880532e-13,6.172073e-29,1.5143141e-23,2.5678571e-33
0,0,0.6692409515380859,1.0,2.1205512e-20,0.0,6.587606e-36,0.0
0,0,0.6694793701171875,0.99999964,2.2812282e-12,3.5958462e-07,5.914537e-09,4.705509e-27
0,0,0.6694793701171875,1.0,2.2751554e-11,4.2076115e-27,6.788201e-19,3.4258336e-25
1,1,0.6699562072753906,3.82443e-12,1.0,6.1478288e-27,1.270755e-33,0.0
0,0,0.6978511810302734,0.99988985,0.00011019345,6.14601e-17,2.8179331e-15,3.409713e-37
0,0,0.6709098815917969,1.0,9.686765e-21,2.04991e-16,0.0,0.0
0,0,0.6687641143798828,1.0,6.1591677e-19,5.6552097e-25,1.8268253e-18,5.6618e-41
0,0,0.6694793701171875,0.99999845,1.6041782e-06,3.58731e-24,5.13615e-18,1.1177224e-36
2,2,0.6697177886962891,8.340796e-15,9.140897e-20,1.0,6.687563e-15,1.5224063e-22
0,0,0.6682872772216797,1.0,2.7308805e-10,0.0,5.1874354e-32,1.491814e-32
0,0,0.6694793701171875,1.0,9.7789225e-12,0.0,2.4556942e-33,0.0
0,0,0.6725788116455078,1.0,5.3379114e-09,0.0,4.4132815e-24,0.0
0,0,0.6690025329589844,1.0,2.773071e-10,4.0343862e-33,3.2494586e-14,5.845245e-38
0,0,0.6699562072753906,1.0,8.0943074e-09,9.770383e-12,9.695058e-26,1.1155809e-37
0,0,0.6706714630126953,0.9999999,9.135303e-08,5.5211236e-35,5.387178e-21,0.0
0,0,0.6687641143798828,1.0,2.1417896e-09,5.430659e-19,1.5055143e-10,2.9648836e-30
0,0,0.6692409515380859,0.9999962,3.816877e-06,2.9373498e-29,8.8479387e-13,8.2250163e-25
0,0,0.6685256958007812,0.9704873,0.029512322,3.8488656e-07,2.777363e-18,6.271e-42
0,0,0.7011890411376953,1.0,1.12440216e-17,0.0,0.0,0.0
0,0,0.6706714630126953,0.99999976,2.9460617e-07,1.17811045e-26,1.6165605e-15,9.13369e-40
0,0,0.6678104400634766,1.0,6.902591e-10,8.7266336e-27,2.2067437e-25,5.0427725e-34
0,0,0.6685256958007812,1.0,1.1085654e-09,2.9154835e-27,1.0548882e-18,3.8124338e-31
0,0,0.6687641143798828,1.0,9.028676e-14,5.753348e-24,7.58185e-22,1.1456499e-28
0,0,0.6699562072753906,1.0,1.3164901e-34,0.0,4.3551605e-26,1.0568532e-34
0,0,0.6694793701171875,1.0,3.2732582e-14,9.935016e-32,5.168015e-11,0.0
0,0,0.6709098815917969,0.9999999,1.3896317e-07,9.4715936e-18,4.5282883e-14,3.009067e-32
0,0,0.6697177886962891,1.0,2.7590769e-08,2.2199603e-15,8.101829e-09,1.3093063e-29
0,0,0.6704330444335938,1.0,2.672789e-14,1.7533234e-13,1.8007429e-12,2.6431822e-25
0,0,0.6711483001708984,0.9999994,5.507746e-07,6.8285975e-30,5.144716e-21,1.1046642e-35
0,0,0.6706714630126953,1.0,4.5007718e-09,3.6573146e-17,2.6040628e-16,1.2492681e-21
0,0,0.6706714630126953,0.99999905,9.614923e-07,6.557726e-32,1.4747117e-20,0.0
0,0,0.6978511810302734,1.0,3.6211023e-36,0.0,1.2300521e-18,7.830046e-37
0,0,0.6721019744873047,1.0,4.685619e-16,9.669619e-24,1.5299889e-19,1.0152555e-38
0,0,0.67138671875,1.0,4.286589e-28,0.0,1.7954083e-29,2.9231e-40
0,0,0.6699562072753906,0.9999999,9.186657e-08,5.760715e-28,1.2563443e-16,3.347719e-36
2,2,0.6690025329589844,4.9119943e-20,1.4952596e-19,1.0,0.0,0.0
0,0,0.6690025329589844,0.999997,3.922015e-21,4.5988026e-11,2.9584091e-06,3.0568794e-22
0,0,0.6697177886962891,1.0,4.137004e-22,7.2176895e-17,8.2528537e-35,0.0
0,0,0.6697177886962891,0.9999999,8.142002e-08,1.40148455e-30,6.4186994e-21,0.0
0,0,0.6701946258544922,0.99999964,4.099808e-07,1.4460101e-12,6.4186907e-12,2.909794e-34
0,0,0.6711483001708984,1.0,1.2143486e-12,0.0,0.0,0.0
0,0,0.6697177886962891,1.0,2.2412436e-09,1.1852289e-10,2.6689236e-13,5.768707e-17
0,0,0.6706714630126953,0.99993956,3.484555e-13,6.0459402e-05,4.8094085e-12,4.2430434e-11
0,0,0.6699562072753906,1.0,1.4048617e-08,2.8908806e-16,1.0901662e-12,8.1339193e-22
0,0,0.6692409515380859,1.0,6.9410294e-31,7.964629e-34,1.31521635e-17,8.731869e-25
0,0,0.6921291351318359,0.99836606,0.0016339569,8.703198e-29,6.7453696e-16,2.1645334e-26
0,0,0.6709098815917969,1.0,4.334745e-24,0.0,0.0,0.0
0,0,0.6706714630126953,0.9999993,7.312781e-07,3.3820264e-37,3.8794515e-29,0.0
0,0,0.6694793701171875,0.99999917,7.944248e-07,0.0,7.715025e-31,0.0
0,0,0.6694793701171875,0.999992,4.749994e-15,8.9560403e-32,8.001923e-06,9.876957e-34
0,0,0.6687641143798828,0.9999906,9.421796e-06,1.749474e-26,9.95014e-15,6.0551703e-31
2,2,0.6690025329589844,2.5360525e-19,3.6949893e-20,1.0,1.8277718e-27,5.4360057e-34
0,0,0.6685256958007812,0.9999927,7.2242465e-06,2.0125945e-16,1.6897917e-15,4.1336204e-26
0,0,0.6706714630126953,1.0,1.8700166e-09,3.764543e-15,2.773108e-10,2.3574092e-22
0,0,0.6685256958007812,0.87602866,1.6916974e-30,3.8534298e-29,0.0,0.123971276
0,0,0.6701946258544922,1.0,2.5773146e-09,1.15040994e-29,4.8955017e-25,0.0
0,0,0.6701946258544922,1.0,7.759592e-14,1.0372547e-11,5.8027446e-12,2.1706042e-22
0,0,0.6694793701171875,1.0,8.939136e-12,6.263154e-20,2.7146595e-27,8.807559e-36
0,0,0.6709098815917969,0.99999356,6.410412e-06,1.7219035e-25,1.2534868e-18,5.6998234e-35
0,0,0.7169246673583984,0.99999964,4.1557453e-07,4.6592156e-18,3.1217084e-10,2.3830001e-26
0,0,0.6706714630126953,1.0,2.329828e-08,5.802945e-23,5.670248e-16,1.6914767e-27
0,0,0.6709098815917969,0.99999964,3.1658087e-07,0.0,4.6947283e-37,0.0
0,0,0.6680488586425781,0.9999783,2.171019e-05,4.802373e-19,3.056596e-10,7.661186e-18
0,0,0.6697177886962891,0.99899286,0.0010071761,8.520772e-19,9.167378e-24,3.0328605e-26
0,0,0.6697177886962891,0.9999585,4.1476444e-05,5.5206135e-15,2.0287481e-19,5.6326165e-21
0,0,0.6704330444335938,1.0,7.2715875e-11,6.0565726e-22,3.0259502e-12,3.1453652e-25
0,0,0.6709098815917969,1.0,8.417863e-30,0.0,4.868065e-35,0.0
0,0,0.6701946258544922,0.9999999,1.0934048e-07,2.4367873e-26,3.1955393e-20,7.7517693e-28
2,2,0.6692409515380859,1.9439783e-25,1.3901646e-30,1.0,8.359992e-18,6.3e-44
0,0,0.6699562072753906,0.99999905,9.801944e-07,8.7103667e-26,6.352503e-16,6.48012e-40
0,0,0.6697177886962891,1.0,3.493086e-08,3.4653196e-24,1.1103606e-19,2.1410772e-33
0,0,0.6704330444335938,1.0,3.3080973e-30,0.0,1.7385013e-32,0.0
0,0,0.6697177886962891,0.54811466,0.45188528,3.5205395e-25,4.4342857e-15,7.317383e-20
0,4,0.7011890411376953,1.08563836e-16,0.0,2.5624424e-36,6.1791305e-17,1.0
0,0,0.6690025329589844,1.0,5.070122e-20,0.0,0.0,7.627e-42
0,0,0.6699562072753906,1.0,7.3911957e-16,5.2102024e-32,1.0304699e-21,5.4698216e-29
0,0,0.6697177886962891,1.0,4.3302628e-14,2.3109714e-18,1.8895159e-18,1.2270242e-26
0,0,0.6699562072753906,1.0,2.5215972e-15,1.7931089e-21,4.46863e-15,1.4798675e-30
0,0,0.67138671875,0.84495825,0.15504174,1.1884667e-25,2.2168097e-18,4.1793006e-26
0,0,0.6699562072753906,1.0,8.902324e-14,1.2831951e-27,6.4622847e-21,0.0
0,0,0.6694793701171875,0.9999995,4.7546624e-07,4.5166297e-23,7.258945e-15,3.0381145e-28
0,0,0.6704330444335938,1.0,3.6363062e-18,1.1322406e-16,0.0,0.0
0,0,0.6699562072753906,0.99188715,0.0081127975,1.6948492e-08,2.2194582e-14,1.79751e-13
0,1,0.6699562072753906,0.00066669215,0.9993333,1.1234271e-14,2.4211177e-21,1.1981216e-25
2,0,0.6687641143798828,0.9999939,4.3720274e-06,1.7245928e-06,1.1720398e-09,4.4258467e-17
0,0,0.6680488586425781,1.0,1.524108e-12,4.0282478e-19,9.13198e-34,2.799543e-39
0,0,0.6711483001708984,1.0,9.6634645e-12,2.5222086e-26,1.5805402e-13,7.2387106e-29
0,0,0.6725788116455078,1.0,1.2553159e-10,6.835579e-13,7.0266e-31,5.5549723e-33
0,0,0.6694793701171875,1.0,3.58312e-11,1.8690775e-33,5.3406726e-20,3.5911907e-31
0,0,0.6706714630126953,0.99999976,2.4048356e-07,2.2236852e-26,3.8430323e-19,1.5047306e-32
2,2,0.6680488586425781,5.2194493e-18,1.6127758e-19,1.0,1.791242e-14,4.1759436e-15
0,0,0.6687641143798828,0.99999964,1.7373227e-07,1.8361162e-07,1.1245236e-10,9.11817e-16
0,0,0.6694793701171875,1.0,8.927103e-09,5.0623377e-26,1.7300812e-11,6.232e-42
2,2,0.6701946258544922,3.5713492e-19,1.3209897e-23,1.0,1.7112664e-26,2.16045e-40
0,0,0.667572021484375,0.99887496,0.0011250618,1.043136e-24,4.360885e-15,3.7840224e-22
0,0,0.6692409515380859,1.0,6.9596484e-10,1.5285776e-26,3.0069472e-23,0.0
0,0,0.6685256958007812,0.9998159,1.2461893e-18,3.714893e-31,0.00018415507,2.4978532e-36
0,0,0.6690025329589844,1.0,5.7695697e-12,7.561145e-36,2.5408113e-08,8.24327e-39
0,0,0.6685256958007812,0.9999999,6.589696e-08,4.657049e-14,1.2568058e-10,1.1038778e-26
0,0,0.6692409515380859,1.0,4.523567e-14,1.1675843e-32,7.311628e-26,0.0
0,0,0.6988048553466797,1.0,8.8635216e-26,1.4097895e-24,1.202405e-20,1.62347e-40
1,1,0.6711483001708984,5.563992e-16,1.0,0.0,6.071935e-29,1.5e-44
0,0,0.6680488586425781,1.0,2.1704014e-11,2.131938e-36,2.179661e-26,8.444666e-27
0,0,0.6704330444335938,1.0,3.7952932e-18,0.0,1.0186838e-33,0.0
0,0,0.6687641143798828,1.0,5.0523672e-17,8.0298946e-16,2.3159631e-36,0.0
0,0,0.6687641143798828,1.0,3.7089087e-15,1.7660241e-20,2.7275387e-29,3.2087227e-33
0,0,0.6680488586425781,1.0,2.6843605e-37,0.0,0.0,0.0
0,0,0.6699562072753906,0.9999993,3.6686941e-07,3.6104797e-09,3.7723757e-07,3.694277e-15
0,0,0.6699562072753906,1.0,7.2857365e-18,6.425529e-23,4.0977224e-22,1.3847133e-22
0,0,0.6694793701171875,1.0,1.5108786e-26,0.0,4.3513987e-30,0.0
0,0,0.6687641143798828,1.0,3.3716855e-14,1.842467e-18,3.5961254e-24,2.2e-44
0,0,0.6682872772216797,1.0,3.1285479e-09,4.9326914e-18,6.590642e-15,2.572659e-35
0,0,0.6685256958007812,0.99999857,1.4703511e-06,6.2701764e-34,8.323919e-12,4e-45
0,0,0.6699562072753906,1.0,1.0715726e-09,2.3087676e-34,3.903881e-26,0.0
0,0,0.6921291351318359,0.9999999,6.8854376e-08,1.917405e-18,1.5867086e-16,4.5436125e-28
0,0,0.6690025329589844,1.0,4.2638358e-14,1.7275483e-23,2.4264592e-22,5.68874e-40
0,1,0.6697177886962891,0.13729101,0.862709,2.1016778e-18,9.150623e-15,1.1621693e-22
0,0,0.6690025329589844,0.9999999,9.428831e-08,1.4313764e-27,2.515274e-16,1.0530573e-28
0,0,0.6682872772216797,1.0,1.4187315e-09,2.853512e-21,4.2371105e-16,2.434476e-39
0,0,0.6685256958007812,1.0,1.03367914e-20,0.0,1.3215015e-34,0.0
0,0,0.6690025329589844,1.0,3.298796e-08,1.9201023e-22,1.48649e-19,8.562137e-31
0,0,0.6690025329589844,0.9999863,5.556829e-09,9.7703326e-14,1.3713725e-05,6.0132605e-20
0,0,0.6694793701171875,1.0,7.8913246e-18,0.0,0.0,0.0
0,0,0.6699562072753906,1.0,4.045371e-27,0.0,4.4977754e-36,0.0
0,0,0.6690025329589844,1.0,3.0863654e-17,1.0173486e-24,6.352774e-24,8.444677e-32
0,0,0.6680488586425781,1.0,4.2223597e-10,1.0186089e-20,9.2234664e-10,8.140881e-20
0,0,0.667572021484375,0.97679454,6.2965405e-08,0.023205318,2.2935204e-27,4.8145167e-17
0,0,0.6673336029052734,1.0,1.7927193e-13,1.8762548e-20,1.3099399e-23,6.4e-44
0,0,0.6966590881347656,1.0,1.8304878e-10,2.8792118e-18,5.7950267e-15,3.937737e-21
0,0,0.6680488586425781,0.99999976,2.2980717e-07,1.0784006e-12,6.57972e-09,4.7854593e-30
2,2,0.6701946258544922,1.9600336e-24,0.0,1.0,9.59828e-33,0.0
0,0,0.6709098815917969,1.0,1.4249417e-13,6.4961315e-14,5.299445e-16,2.4990162e-23
0,0,0.6690025329589844,1.0,6.703856e-16,0.0,1.4453765e-08,1.34387e-40
0,0,0.6690025329589844,1.0,4.4579613e-12,1.6179075e-13,9.9658476e-11,6.5402274e-22
2,2,0.6678104400634766,9.191748e-18,1.1806804e-25,1.0,2.5136009e-12,0.0
0,0,0.6697177886962891,1.0,1.6504281e-21,2.6624369e-20,8.790791e-18,4.988353e-29
2,2,0.6687641143798828,0.0013990403,1.01471635e-20,0.9890071,0.009593952,6.41029e-21
0,0,0.6687641143798828,1.0,1.3479399e-13,4.8438196e-34,8.01891e-30,6.7911472e-28
2,2,0.6682872772216797,2.6555362e-30,4.450886e-30,1.0,1.4437613e-24,0.0
0,0,0.6694793701171875,0.9999994,6.0117054e-07,2.0227469e-29,1.4528839e-10,1.313523e-21
0,0,0.6694793701171875,0.9999473,5.2719348e-05,3.7533335e-22,1.1111591e-17,5.208807e-27
0,0,0.6680488586425781,0.999977,2.2966873e-05,2.7345932e-20,1.0074251e-13,5.6828066e-31
0,0,0.701904296875,0.9999999,8.987432e-08,4.4627604e-19,5.995537e-08,1.3161784e-34
0,0,0.6709098815917969,0.9999945,4.3417194e-06,2.4252884e-30,1.0992063e-06,8.313592e-37
0,0,0.6697177886962891,0.99999964,1.7307379e-18,3.47402e-36,3.8075302e-07,4.05923e-37
2,2,0.6682872772216797,4.2157913e-26,2.74129e-34,1.0,1.423138e-36,0.0
0,0,0.6692409515380859,0.9999896,1.0344987e-05,9.8223667e-29,8.7957733e-16,2.5208604e-29
0,0,0.6694793701171875,0.99998343,1.660683e-05,1.04171114e-13,2.4000203e-12,1.13817e-19
0,0,0.6690025329589844,0.9999981,1.9201289e-06,2.3646597e-26,5.392057e-23,7.3e-43
0,0,0.6690025329589844,1.0,1.4952086e-11,6.8038885e-18,1.0834277e-11,3.0030393e-37
0,0,0.6697177886962891,0.9999999,1.692998e-07,1.080205e-33,2.3057259e-23,0.0
0,0,0.6682872772216797,1.0,1.5027568e-26,0.0,0.0,0.0
0,0,0.6682872772216797,1.0,1.8245064e-10,4.2346705e-16,2.8147748e-10,3.4141713e-32
0,0,0.6701946258544922,1.0,1.5504669e-24,0.0,3.6213268e-34,0.0
2,2,0.667572021484375,2.816448e-23,1.6600726e-33,1.0,1.9453771e-36,0.0
0,0,0.6961822509765625,0.9999999,6.363047e-08,2.8918755e-22,3.0151296e-20,3.4108313e-36
0,0,0.6701946258544922,1.0,1.7278224e-11,7.6680056e-14,8.805952e-20,2.526363e-15
0,0,0.6687641143798828,1.0,9.965656e-15,9.1972785e-09,1.9710153e-19,1.2279782e-28
0,0,0.6678104400634766,1.0,0.0,7.367454e-19,0.0,0.0
0,0,0.6692409515380859,1.0,0.0,2.1054235e-26,5.324586e-26,1.8e-44
0,0,0.6682872772216797,1.0,1.1379334e-18,1.7949894e-15,2.2082596e-25,1.4276253e-26
0,0,0.6685256958007812,1.0,1.1866875e-22,1.7881003e-23,1.7629545e-28,0.0
0,0,0.6678104400634766,0.9999937,6.3192797e-06,1.5045494e-17,3.5085335e-09,7.777101e-29
0,0,0.6682872772216797,1.0,5.0650185e-20,1.54111e-30,4.0415798e-14,1.7657047e-23
0,0,0.6687641143798828,0.99999917,8.7709014e-07,2.0801339e-31,9.137824e-27,3.1e-44
0,0,0.6690025329589844,0.99998355,1.650216e-05,5.742743e-19,1.0605077e-10,7.9788337e-38
0,0,0.6701946258544922,0.99999976,2.405065e-07,1.9323844e-14,3.1921115e-30,3.3669475e-33
0,0,0.6694793701171875,1.0,4.4319192e-26,0.0,6.4927805e-35,0.0
0,0,0.6690025329589844,1.0,6.365387e-13,1.7377365e-12,2.7848749e-33,9.892187e-28
0,0,0.6914138793945312,1.0,1.11415664e-29,0.0,9.7787414e-26,7.30048e-40
0,0,0.6699562072753906,1.0,5.67337e-10,4.426401e-23,5.823903e-15,9.111499e-38
0,0,0.6685256958007812,1.0,1.5758329e-16,3.7481733e-18,7.1991596e-16,5.126023e-39
0,0,0.6666183471679688,0.9999734,3.5136085e-11,7.94149e-32,2.6599244e-05,1.8986444e-30
0,0,0.667572021484375,1.0,1.3646212e-19,8.0066483e-16,3.0362086e-18,1.7076608e-25
0,0,0.6673336029052734,1.0,3.1806502e-11,5.350834e-10,2.0379984e-10,1.5846801e-26
0,0,0.6692409515380859,1.0,6.5305864e-20,2.5749625e-23,3.7170312e-19,2.227077e-22
0,0,0.6678104400634766,1.0,7.189512e-20,8.103382e-11,6.4920187e-18,3.942141e-21
0,0,0.6685256958007812,0.99997854,7.4074906e-09,9.79246e-25,2.1430882e-05,4.1079363e-35
0,0,0.6685256958007812,1.0,3.8866088e-10,2.8134186e-24,1.2543287e-23,1.9981146e-29
0,0,0.6692409515380859,1.0,5.9011613e-25,3.8957686e-36,3.85095e-23,0.0
1,1,0.6680488586425781,8.0338713e-10,1.0,1.6212879e-27,4.2738596e-25,3.6200914e-37
1,1,0.6685256958007812,4.1570092e-10,1.0,7.261805e-14,1.6139266e-19,2.68828e-40
0,0,0.667572021484375,1.0,2.7614878e-16,2.3791937e-20,1.850641e-15,1.1237665e-26
0,0,0.6880760192871094,1.0,7.518082e-23,1.2400256e-26,1.7733059e-15,9.88949e-24
0,0,0.6690025329589844,1.0,2.3903225e-25,1.163822e-25,1.5146106e-13,4.7924158e-17
0,0,0.6680488586425781,1.0,2.6033717e-09,1.3130139e-12,1.5526933e-15,1.4584226e-19
0,0,0.6680488586425781,1.0,9.925604e-28,7.4479553e-28,6.2618525e-16,7.5140895e-17
0,0,0.6694793701171875,1.0,5.382367e-23,0.0,3.211318e-11,0.0
0,0,0.6692409515380859,1.0,2.1987641e-11,2.7117379e-14,1.9118183e-10,2.591516e-24
0,0,0.6687641143798828,1.0,2.3728006e-15,0.0,2.7021191e-33,4.51101e-34
0,0,0.6687641143798828,0.99999464,5.3100975e-06,2.758886e-10,1.871181e-08,1.00030265e-17
0,0,0.6697177886962891,1.0,1.4747725e-12,1.1103237e-32,1.6949329e-19,0.0
0,0,0.6690025329589844,0.9999988,1.2017127e-06,2.7826684e-29,3.4232676e-11,4.6433464e-34
0,0,0.6697177886962891,1.0,2.1950826e-17,2.8892036e-17,8.4961096e-19,4.663431e-33
0,0,0.6680488586425781,1.0,5.1949255e-15,7.908435e-27,5.288721e-16,5.384944e-34
0,0,0.6682872772216797,1.0,1.4435377e-21,7.0780456e-21,5.110756e-12,0.0
0,0,0.6680488586425781,1.0,5.4337215e-13,1.6439547e-15,5.520308e-18,1.1064896e-15
0,0,0.69427490234375,1.0,1.1228715e-10,0.0,0.0,0.0
0,0,0.6697177886962891,1.0,3.309238e-08,2.5600952e-15,4.8891603e-12,2.4751835e-38
0,0,0.6706714630126953,1.0,7.003808e-36,0.0,8.715316e-36,0.0
0,0,0.6685256958007812,1.0,2.4159917e-13,4.1442793e-25,3.2750904e-20,0.0
0,0,0.6692409515380859,0.5597442,0.44025588,1.3375562e-13,1.2712916e-15,3.583951e-18
0,0,0.6690025329589844,1.0,7.722603e-11,8.976451e-12,8.7375994e-33,5.819526e-38
0,0,0.6685256958007812,0.9986014,1.8670147e-07,2.8679596e-30,0.0013984762,0.0
0,0,0.6685256958007812,1.0,1.9708443e-17,9.957372e-15,7.8586746e-13,4.3708325e-21
0,0,0.6680488586425781,0.99999607,3.943498e-06,5.4578966e-11,7.442228e-10,1.2738262e-19
0,0,0.6678104400634766,1.0,5.8066888e-11,9.36853e-19,6.74973e-18,0.0
0,0,0.6685256958007812,1.0,7.66892e-12,1.935011e-33,3.3117447e-31,8.154e-42
0,0,0.6682872772216797,1.0,2.6962463e-13,2.8658697e-30,1.0379344e-28,0.0
0,0,0.6678104400634766,1.0,1.1160566e-09,2.6225053e-12,9.678617e-14,9.190131e-11
0,0,0.6678104400634766,1.0,5.479053e-10,5.843818e-31,5.514562e-18,7.68642e-38
0,0,0.7004737854003906,1.0,1.4553254e-10,5.013645e-31,1.4744595e-13,0.0
0,0,0.67138671875,1.0,1.7726494e-08,3.8123695e-27,3.688211e-15,2.029392e-24
0,0,0.6690025329589844,1.0,1.5792695e-08,2.7840276e-16,1.203454e-08,8.315751e-25
0,0,0.6685256958007812,1.0,7.1728544e-13,1.320908e-17,1.644904e-20,2.3975786e-28
0,0,0.6692409515380859,0.99999964,3.803654e-07,4.63096e-15,6.5404557e-09,5.6724395e-28
0,0,0.6694793701171875,1.0,3.3302838e-09,1.9251214e-27,5.4797885e-20,7.706587e-39
0,0,0.6692409515380859,0.99999976,2.2362963e-07,0.0,0.0,0.0
0,0,0.667572021484375,1.0,1.5840737e-10,5.188323e-33,3.6924826e-27,2.137402e-28
0,0,0.6692409515380859,1.0,1.430872e-15,2.7792443e-22,2.841833e-22,0.0
0,0,0.6699562072753906,1.0,2.6475311e-18,1.0994254e-15,5.7962117e-18,6.6e-44
0,0,0.6701946258544922,1.0,7.759639e-21,0.0,0.0,0.0
0,0,0.6692409515380859,1.0,2.0636683e-08,9.6894475e-24,9.592596e-20,1.3864364e-37
0,0,0.67138671875,1.0,3.1963184e-21,9.7934194e-17,2.3337704e-14,9.150718e-31
1,1,0.6680488586425781,0.013064413,0.98693556,1.5774824e-19,1.6418946e-14,2.5240492e-29
0,0,0.6961822509765625,0.99999833,1.6976039e-06,2.6357823e-29,1.8769127e-25,0.0
0,0,0.6682872772216797,0.9999273,6.9509486e-05,0.0,3.1460788e-06,0.0
0,0,0.6687641143798828,1.0,1.997489e-11,5.7612644e-13,1.6886918e-27,5.6778983e-35
0,0,0.6670951843261719,1.0,1.6810402e-08,7.393202e-15,5.4261346e-15,4.5126763e-28
0,0,0.6682872772216797,1.0,1.108757e-18,3.7393827e-22,1.5097418e-36,0.0
0,0,0.6690025329589844,1.0,1.8609263e-31,0.0,3.662432e-28,5.758e-42
0,0,0.6697177886962891,0.9999399,6.012753e-05,5.742967e-29,1.1266573e-17,1.8977137e-28
0,0,0.6732940673828125,1.0,2.6600017e-19,2.971832e-18,8.4863923e-19,3.4353887e-24
0,0,0.6699562072753906,1.0,2.1974056e-11,3.32765e-16,7.559862e-17,1.115469e-39
0,0,0.6694793701171875,1.0,2.0689716e-21,0.0,6.3071145e-31,0.0
0,0,0.6680488586425781,1.0,4.039636e-11,4.1582422e-27,9.709692e-23,9e-44
0,0,0.6687641143798828,1.0,2.0038112e-08,6.1542194e-09,1.7220858e-17,3.79966e-22
0,0,0.6682872772216797,0.99999976,1.8610122e-07,7.139199e-27,1.9257769e-17,3.850363e-37
0,0,0.6983280181884766,1.0,1.1032819e-08,8.719892e-24,2.4468402e-13,1.6628008e-29
0,0,0.6704330444335938,1.0,3.887508e-09,1.3652747e-15,1.1657805e-19,5.011217e-23
0,0,0.6694793701171875,0.97849727,0.0215028,5.7024017e-19,1.2817046e-11,1.300542e-24
0,0,0.6685256958007812,1.0,2.7173012e-12,7.891043e-13,1.3146672e-13,2.3506618e-25
0,0,0.6685256958007812,1.0,9.8154144e-24,1.4286939e-14,2.6067327e-34,0.0
0,0,0.6682872772216797,0.9999999,1.4797255e-16,3.029074e-08,1.13514204e-07,1.9625255e-23
0,0,0.6694793701171875,1.0,1.209878e-11,7.557394e-29,4.516545e-16,2.5636902e-31
0,0,0.6692409515380859,0.9999999,6.943572e-08,6.1239876e-12,1.8124818e-28,2.2284896e-35
0,0,0.6690025329589844,0.9999999,1.1357538e-07,1.3299073e-25,8.109276e-14,1.0126603e-30
0,0,0.6685256958007812,1.0,2.458952e-10,8.594642e-10,1.5615292e-11,1.5576595e-14
2,2,0.6685256958007812,4.7443823e-11,2.791486e-21,1.0,8.293896e-24,1.22923575e-33
0,0,0.6680488586425781,0.9999999,7.907183e-08,2.0613645e-33,9.167648e-27,0.0
2,2,0.6682872772216797,1.65958e-24,2.481351e-28,1.0,2.4623971e-21,1.40613e-40
0,0,0.6680488586425781,1.0,2.0324093e-13,4.859024e-22,1.7493132e-15,6.488598e-34
0,0,0.6928443908691406,1.0,1.7224428e-22,0.0,6.4362726e-31,0.0
0,0,0.6699562072753906,0.9471394,0.0023207613,0.05053985,3.6549472e-09,6.239764e-20
0,0,0.6678104400634766,0.99983656,0.00016344475,4.4669316e-21,1.1861668e-16,1.0575671e-20
0,0,0.6682872772216797,1.0,1.4412849e-09,1.8940347e-09,1.3440936e-29,5.76608e-20
2,2,0.6692409515380859,7.354001e-20,3.7029213e-19,1.0,1.3380968e-38,0.0
0,0,0.6680488586425781,1.0,1.0393528e-13,4.34528e-10,1.1812347e-17,4.8116243e-20
0,0,0.6704330444335938,1.0,2.2531966e-14,1.0418677e-24,6.198458e-27,0.0
0,0,0.6680488586425781,1.0,4.091149e-21,1.2604257e-22,1.0775068e-15,0.0
0,0,0.6685256958007812,1.0,6.9815065e-10,5.7521143e-18,3.0319428e-11,8.2050455e-27
0,0,0.667572021484375,1.0,1.1876812e-19,6.077567e-21,8.167519e-25,7.11174e-21
0,0,0.6678104400634766,1.0,1.6426565e-08,2.0886266e-09,5.0779316e-24,4.1043967e-17
0,0,0.6868839263916016,0.99972516,7.258267e-08,0.00027471513,1.2651057e-10,5.657453e-17
0,0,0.6694793701171875,1.0,2.857779e-08,1.1526516e-19,8.806322e-20,7.083144e-30
0,0,0.6678104400634766,1.0,1.9686542e-13,5.211421e-22,9.223658e-22,1.7e-44
0,0,0.6968975067138672,1.0,1.1306041e-25,3.2743995e-30,1.4684344e-16,4.4357715e-20
0,0,0.6699562072753906,0.99993885,6.1165265e-05,0.0,1.454381e-30,0.0
0,0,0.6685256958007812,1.0,2.2896496e-13,1.9365082e-12,6.190131e-11,3.679294e-19
0,0,0.6673336029052734,1.0,2.7165112e-10,1.1924463e-14,7.164079e-20,4.1816844e-29
0,0,0.6680488586425781,0.9999988,1.2169245e-06,1.2866296e-27,8.188483e-15,3.558878e-39
0,0,0.6768703460693359,1.0,4.4298957e-24,0.0,9.518002e-31,1e-45
3,3,0.6690025329589844,7.3082276e-19,2.1637005e-24,0.28433067,0.71566933,1.1750318e-34
0,0,0.6690025329589844,1.0,6.10812e-17,1.7843206e-36,7.512325e-29,0.0
0,0,0.6690025329589844,1.0,4.4473945e-09,3.3868985e-13,1.1154919e-14,2.2619877e-34
2,2,0.6680488586425781,9.257258e-28,9.14822e-28,1.0,4.4588424e-21,2.2389417e-38
0,0,0.6680488586425781,1.0,2.0541471e-10,1.0550613e-18,9.903679e-18,8.5602996e-33
0,0,0.6687641143798828,0.99999225,7.757507e-06,2.247519e-28,1.8414536e-27,0.0
0,0,0.6694793701171875,0.9999974,2.6068296e-06,6.896969e-21,1.5271504e-20,7.870393e-22
0,0,0.6763935089111328,0.99999833,1.6796e-06,4.5105236e-18,2.0964656e-13,1.5733638e-28
0,0,0.7016658782958984,1.0,2.4682194e-09,7.213168e-19,1.4121796e-16,1.1057852e-37
0,0,0.6704330444335938,0.9999982,3.2048736e-12,0.0,1.7554111e-06,2.6949113e-38
0,0,0.6682872772216797,1.0,4.7977792e-08,1.4526179e-15,3.6574308e-22,2.1730456e-32
1,0,0.6685256958007812,1.0,1.8941234e-22,7.166016e-36,6.742203e-37,7.869607e-36
0,0,0.6692409515380859,1.0,1.2246652e-11,1.0107709e-08,6.4877157e-09,8.610151e-24
0,0,0.6692409515380859,1.0,6.863687e-19,0.0,6.753772e-26,0.0
0,0,0.6694793701171875,1.0,1.7722961e-25,5.8833777e-34,1.7704888e-21,7.807039e-25
0,0,0.6775856018066406,1.0,1.4826412e-16,3.0251976e-21,1.3379422e-25,5.853558e-34
0,0,0.6704330444335938,1.0,8.8612426e-14,5.4748544e-21,1.4594739e-20,0.0
0,0,0.6690025329589844,1.0,3.3602082e-13,0.0,7.806049e-27,3.0850177e-28
0,0,0.6690025329589844,0.9999956,5.4099825e-10,4.3687046e-06,1.1815687e-11,2.4601352e-19
0,0,0.6732940673828125,1.0,2.125545e-23,0.0,4.316274e-27,0.0
0,0,0.6709098815917969,1.0,1.9253609e-11,6.153627e-26,4.4393947e-20,0.0
0,0,0.6685256958007812,1.0,6.2081806e-09,3.251207e-10,1.9042682e-20,3.071955e-23
0,0,0.6992816925048828,1.0,1.6499206e-18,5.02701e-13,1.1762345e-17,4.5128105e-22
0,0,0.6771087646484375,1.0,4.6362626e-31,3.8093746e-27,0.0,1.1707733e-24
2,2,0.6704330444335938,5.962398e-23,5.1770958e-17,1.0,1.1177845e-20,2.1555e-41
3,3,0.6687641143798828,1.7625265e-14,9.9409615e-18,5.073269e-15,1.0,1.9038253e-27
0,0,0.6690025329589844,0.9995427,0.00045727257,1.9073535e-33,1.4004458e-11,7.3805e-41
0,0,0.6682872772216797,1.0,1.5531487e-16,4.023133e-12,7.11082e-13,6.7605607e-23
0,0,0.6697177886962891,0.9999993,6.686004e-07,9.71222e-35,7.684125e-24,0.0
0,0,0.6687641143798828,1.0,1.5283902e-12,0.0,0.0,0.0
0,0,0.6687641143798828,1.0,4.023012e-11,0.0,2.4230381e-36,8.389689e-36
0,0,0.6759166717529297,1.0,6.061855e-14,2.5635744e-15,5.4352516e-22,3.4801746e-36
0,0,0.6685256958007812,0.9853946,0.0146054,2.7562283e-22,2.1623057e-16,5.506439e-29
0,0,0.6670951843261719,1.0,2.1100535e-12,1.3165426e-23,1.9232754e-08,1.5770443e-35
0,0,0.6690025329589844,1.0,6.295046e-09,9.654022e-33,4.4423537e-15,5.5319086e-23
0,0,0.6961822509765625,1.0,2.7390865e-25,0.0,1.6984071e-36,6.372002e-37
0,0,0.6704330444335938,0.9999999,1.8287345e-19,1.0977217e-19,8.762493e-08,4e-45
0,0,0.6682872772216797,1.0,1.1722461e-20,9.2150245e-18,3.2036457e-19,5.2990536e-26
0,0,0.6680488586425781,1.0,2.914029e-18,4.3749458e-13,1.089732e-19,8.876172e-19
0,0,0.6759166717529297,1.0,8.704799e-25,0.0,1.7454488e-36,4.661e-42
0,0,0.6711483001708984,0.95183223,0.04816781,2.9386458e-08,5.9545836e-13,4.7122865e-32
1,1,0.6680488586425781,3.875335e-10,1.0,7.785264e-19,1.5704229e-20,5.9119036e-34
0,0,0.6678104400634766,0.99999905,6.363919e-07,3.5231915e-09,2.0738003e-07,6.353921e-08
2,2,0.667572021484375,3.8848113e-12,2.2267697e-16,1.0,8.4295055e-20,1.3548391e-33
0,0,0.6690025329589844,0.99999964,3.4330725e-07,2.2505674e-10,2.638811e-16,9.0774554e-32
0,0,0.6678104400634766,1.0,7.0301924e-12,3.0281758e-29,1.2034471e-08,6.293934e-26
2,2,0.6685256958007812,3.102158e-25,7.25396e-13,1.0,1.5868658e-24,3e-44
0,0,0.6740093231201172,1.0,5.3492887e-08,1.970178e-22,5.007703e-15,1.634802e-34
0,0,0.6682872772216797,1.0,1.0650709e-12,6.301006e-31,3.896089e-09,9.9337125e-27
0,0,0.6930828094482422,0.99999976,2.1498985e-19,2.5907643e-09,2.85259e-07,4.956121e-16
0,0,0.6692409515380859,1.0,2.3455543e-27,3.443913e-27,2.951092e-17,7.0931195e-38
0,0,0.6706714630126953,1.0,1.4737258e-09,4.7703906e-29,2.1830293e-20,6e-44
0,0,0.6697177886962891,1.0,8.520734e-10,2.698828e-29,1.2598776e-22,0.0
0,0,0.6682872772216797,1.0,2.6579987e-15,0.0,4.1129967e-27,0.0
0,0,0.6690025329589844,0.9999596,4.0409104e-05,3.1880088e-27,6.716082e-14,1.6195198e-30
0,0,0.6699562072753906,0.9999999,1.2800325e-07,7.335948e-22,3.2000242e-15,5.511935e-32
0,0,0.6709098815917969,1.0,2.5976767e-21,2.7777597e-30,5.9179243e-28,0.0
0,0,0.6694793701171875,1.0,7.178083e-09,1.3592174e-35,9.0386315e-30,0.0
0,0,0.6692409515380859,1.0,5.080861e-15,1.03715896e-20,1.029629e-21,3.9301e-41
0,0,0.6680488586425781,0.99999964,3.7913696e-07,3.2506051e-21,3.405139e-12,1.0201223e-25
0,0,0.6682872772216797,1.0,6.66666e-20,5.2356876e-31,8.9648796e-13,7.2032575e-37
0,0,0.6699562072753906,1.0,1.1609989e-11,2.6872794e-15,2.3102133e-18,4.626e-42
2,2,0.6692409515380859,5.063832e-08,1.0228643e-21,1.0,6.4266126e-10,1.5345179e-35
0,0,0.6999969482421875,0.9999999,9.9113654e-15,6.23901e-31,6.586467e-08,0.0
0,0,0.6704330444335938,0.9999989,1.1060779e-06,7.126563e-13,2.6888504e-19,1.8131115e-18
0,0,0.6701946258544922,0.99654704,3.95033e-12,0.0,0.003452969,1.92e-43
0,0,0.6692409515380859,1.0,8.299148e-13,0.0,1.15259745e-29,3.1909015e-33
0,0,0.6694793701171875,0.99999297,6.470669e-06,1.5362085e-09,5.543454e-07,5.2343265e-18
0,0,0.6690025329589844,1.0,1.336422e-10,2.11156e-19,3.1082632e-22,4.55956e-32
0,0,0.6690025329589844,0.99995565,4.4222365e-05,1.5443643e-33,8.843064e-08,0.0
0,0,0.6697177886962891,0.99999964,3.7881674e-07,1.0259704e-29,2.2450214e-16,1.5272274e-30
0,0,0.6685256958007812,1.0,2.9700417e-14,8.7084076e-20,1.2068425e-15,8.070719e-13
0,0,0.6685256958007812,1.0,1.04065404e-13,2.4717381e-17,5.671606e-14,1.0642674e-22
0,0,0.6690025329589844,1.0,2.394502e-10,1.1658188e-22,1.8820386e-21,1.5772729e-35
0,0,0.6678104400634766,1.0,5.409857e-08,2.6716842e-13,6.0761055e-29,9.328953e-32
0,0,0.6678104400634766,1.0,3.734498e-08,6.9921233e-34,2.6208836e-17,2.2612482e-32
0,0,0.6690025329589844,1.0,1.9839428e-21,2.7999305e-30,8.733916e-37,0.0
0,0,0.6973743438720703,1.0,5.229357e-17,1.4357277e-22,2.986255e-13,1.8667945e-28
0,0,0.67138671875,0.9999981,1.8366607e-06,2.5699806e-13,8.255375e-08,4.0087406e-34
0,0,0.6694793701171875,1.0,4.561066e-09,1.1661251e-08,5.632366e-14,1.4592948e-21
0,0,0.6694793701171875,0.982793,0.017207002,8.3198786e-17,5.6984174e-08,2.2478334e-23
0,0,0.6687641143798828,1.0,5.8029063e-21,2.89548e-18,1.5204655e-14,3.7802907e-20
0,0,0.6694793701171875,1.0,3.2003054e-15,9.384903e-36,4.830445e-25,6.0360405e-23
0,0,0.6690025329589844,1.0,1.4347898e-09,4.049034e-25,4.348666e-20,4.6391486e-37
0,0,0.6699562072753906,1.0,7.441726e-23,0.0,0.0,0.0
0,0,0.6699562072753906,1.0,4.2977672e-15,1.7467293e-34,2.2525308e-10,3.30121e-32
0,0,0.6678104400634766,1.0,1.3836099e-22,1.9582135e-28,9.809399e-14,0.0
0,0,0.6687641143798828,1.0,2.4141352e-13,4.9393584e-10,2.4171796e-14,2.9985818e-25
0,0,0.6685256958007812,1.0,1.0721202e-21,5.5677266e-32,2.6871667e-15,2.3399033e-29
0,0,0.6692409515380859,1.0,1.9168251e-09,2.3936368e-31,1.879847e-13,2.6741e-40
0,0,0.6687641143798828,0.99999607,1.7033304e-22,3.4662132e-27,3.8936128e-06,1.74e-43
0,0,0.6949901580810547,1.0,2.7087384e-11,5.9149527e-18,1.6126905e-18,2.3679677e-26
0,0,0.6711483001708984,1.0,1.565494e-09,1.1448527e-32,7.702865e-29,2.008523e-29
0,0,0.6706714630126953,1.0,6.187108e-38,1.5166297e-19,1.8516767e-25,1e-45
0,0,0.6687641143798828,1.0,2.5661258e-13,4.076879e-13,1.824558e-22,3.9119185e-32
2,2,0.6697177886962891,8.59894e-21,4.7075566e-20,1.0,5.997435e-31,0.0
2,2,0.6701946258544922,1.8580846e-28,1.267588e-19,1.0,0.0,0.0
2,2,0.6690025329589844,8.609527e-32,2.0235526e-27,1.0,5.5512875e-33,0.0
0,0,0.6682872772216797,1.0,7.191738e-19,2.1664216e-27,1.6892472e-18,0.0
0,0,0.6690025329589844,1.0,6.4678845e-13,6.7689296e-21,1.848592e-18,7.179349e-26
0,0,0.6687641143798828,1.0,2.0159336e-11,2.2012262e-27,5.7011194e-21,3.32737e-40
0,0,0.6694793701171875,1.0,8.25663e-09,2.1450494e-19,1.4209738e-09,2.009299e-27
0,0,0.6697177886962891,0.5980692,0.40193075,7.374474e-23,2.2378951e-10,6.9174074e-37
0,0,0.6861686706542969,1.0,1.0743255e-16,1.3728534e-29,8.438159e-28,0.0
0,0,0.6966590881347656,1.0,6.0445703e-22,0.0,0.0,0.0
0,0,0.6692409515380859,0.9999057,3.3669595e-10,1.5645239e-34,9.432814e-05,1.5883365e-27
2,2,0.6694793701171875,7.7606893e-25,1.9179838e-25,1.0,9.1302896e-38,0.0
2,2,0.6692409515380859,5.99927e-22,4.7722692e-35,1.0,8.139458e-19,3.206755e-39
0,0,0.6690025329589844,0.9999999,6.27065e-08,3.525835e-21,2.4366615e-11,6.014964e-30
0,0,0.6685256958007812,1.0,0.0,2.5941174e-09,0.0,0.0
0,0,0.6690025329589844,0.9999995,3.868471e-07,6.4402462e-24,1.2227764e-07,5.8550277e-27
0,0,0.6678104400634766,1.0,1.546003e-15,2.9184444e-34,4.6243007e-25,0.0
0,0,0.6701946258544922,0.99999964,4.0658242e-07,3.051045e-26,2.8030792e-17,2.6111445e-38
0,0,0.6685256958007812,0.999998,2.0358227e-06,3.5757163e-20,1.5277953e-16,1.1003319e-33
0,0,0.6687641143798828,1.0,2.6542106e-14,6.5085265e-20,1.9790176e-14,2.5269053e-28
0,0,0.6685256958007812,0.9999553,4.470004e-05,3.3535258e-29,4.8103097e-12,2.085e-42
0,0,0.6692409515380859,1.0,9.538341e-19,3.9496376e-21,8.5817703e-13,1.9860578e-26
0,0,0.667572021484375,1.0,1.3050716e-16,5.2427074e-14,1.4048783e-15,2.5724422e-28
0,0,0.690460205078125,1.0,3.3045648e-23,5.479685e-27,0.0,0.0
0,0,0.6692409515380859,0.9999994,4.74191e-07,5.0058615e-32,8.535866e-08,0.0
0,0,0.6768703460693359,1.0,5.5780382e-24,0.0,4.212288e-33,0.0
2,2,0.6678104400634766,4.772827e-15,8.1447154e-13,1.0,1.8530448e-28,3.58985e-40
0,0,0.6685256958007812,1.0,4.583186e-11,4.779449e-19,1.4580965e-24,0.0
0,0,0.6694793701171875,0.9999999,1.229918e-07,0.0,4.346545e-34,0.0
0,0,0.6690025329589844,1.0,9.346905e-25,3.0330558e-13,1.4620079e-22,9.010164e-29
0,0,0.6685256958007812,1.0,1.8686523e-15,7.765082e-11,8.271375e-11,4.3558807e-23
0,0,0.6692409515380859,0.99991214,8.7850975e-05,6.765532e-14,6.713225e-11,1.1204572e-19
0,0,0.6680488586425781,1.0,1.017089e-12,2.0659514e-13,6.8789926e-12,4.0875375e-17
0,0,0.6668567657470703,1.0,8.237049e-16,0.0,6.647238e-11,1.6273869e-32
0,0,0.6721019744873047,0.99967074,0.0003292977,1.4328877e-20,3.369285e-13,5.046615e-34
2,2,0.6682872772216797,5.348789e-27,0.0,1.0,0.0,0.0
0,0,0.6692409515380859,1.0,6.5097915e-28,0.0,8.893876e-32,0.0
0,0,0.6928443908691406,1.0,8.216064e-10,9.177404e-21,6.321799e-11,6.44752e-33
0,0,0.6687641143798828,1.0,5.410978e-17,2.808101e-16,8.708877e-19,0.0
0,0,0.6673336029052734,1.0,7.451877e-09,7.781569e-30,9.580177e-13,2.7201717e-21
0,0,0.6680488586425781,1.0,1.4045976e-18,1.4257667e-15,7.921269e-19,1.8157047e-30
0,0,0.6687641143798828,1.0,1.3167571e-10,3.6979314e-38,1.2351017e-26,2.3528796e-31
0,0,0.6740093231201172,0.999985,1.5076263e-05,3.504973e-08,1.2083012e-18,1.12528625e-17
0,0,0.6694793701171875,1.0,1.4844376e-09,9.7843156e-23,4.2846814e-18,3.8380996e-32
0,0,0.6706714630126953,1.0,2.6787887e-27,0.0,3.1211297e-38,0.0
0,0,0.6685256958007812,0.9999999,2.5372587e-10,1.1707363e-11,7.240845e-08,1.3192627e-22
0,0,0.6682872772216797,1.0,1.3534029e-26,1.1534774e-21,1.8750407e-10,4.140897e-10
0,0,0.6687641143798828,1.0,1.4406802e-09,1.0825935e-18,2.206043e-08,4.5099616e-26
0,0,0.6687641143798828,0.9999999,3.55393e-13,1.6567854e-07,8.649372e-21,3.0673279e-24
0,0,0.6680488586425781,1.0,7.0938927e-19,1.170346e-22,2.0674561e-14,7.060909e-24
0,0,0.6680488586425781,1.0,1.3306033e-24,0.0,1.4875263e-29,0.0
0,0,0.7169246673583984,1.0,2.8797625e-17,1.5381319e-23,1.5502112e-18,4.0093552e-29
0,0,0.6723403930664062,0.9999999,1.5282248e-07,5.814857e-26,8.391367e-18,3.0298304e-27
0,0,0.6701946258544922,0.99960715,0.0003928244,2.7645309e-18,2.817542e-17,2.2498972e-26
0,0,0.6680488586425781,1.0,5.515961e-22,4.003932e-28,3.7023423e-19,4.339658e-24
0,0,0.6706714630126953,0.99997604,2.39706e-05,1.0537168e-18,3.9004876e-12,1.1981774e-35
0,0,0.6682872772216797,1.0,5.9463524e-11,1.5367094e-27,1.2550881e-18,2.679922e-35
0,0,0.6699562072753906,1.0,3.985702e-11,6.212486e-30,6.141451e-20,2.13262e-40
0,0,0.6690025329589844,0.9999914,8.596963e-06,1.2195704e-19,3.6150702e-08,6.0814304e-22
0,0,0.6694793701171875,0.99901307,0.0009869115,3.630115e-17,9.887355e-15,3.4190336e-25
1,1,0.6685256958007812,1.2915104e-10,1.0,2.9319014e-19,4.4162442e-17,3.2662909e-37
0,0,0.6704330444335938,1.0,1.3410226e-11,0.0,0.0,0.0
0,0,0.6678104400634766,0.99999714,2.9161345e-06,3.0052649e-15,3.6233603e-12,5.2938422e-20
3,2,0.6697177886962891,1.02904525e-11,0.0,1.0,2.5820862e-29,0.0
0,0,0.6704330444335938,1.0,0.0,0.0,0.0,0.0
2,2,0.6964206695556641,4.37205e-18,2.2487247e-28,0.9996666,0.0003334679,8.626846e-15
2,1,0.6723403930664062,6.920004e-06,0.9999931,4.6350372e-08,7.1358377e-17,7.2855575e-30
0,0,0.6744861602783203,1.0,2.0151737e-25,0.0,0.0,0.0
0,0,0.667572021484375,1.0,2.664471e-26,3.2360392e-24,2.5963979e-14,4.2752952e-17
0,0,0.6682872772216797,0.99999964,3.0903618e-07,4.565544e-18,6.2739497e-12,3.6587596e-27
0,0,0.6685256958007812,1.0,3.5955148e-09,3.3987767e-11,4.6335685e-11,1.4813842e-26
0,0,0.6694793701171875,1.0,5.782057e-10,1.8393688e-27,3.0072705e-14,3.684889e-24
0,0,0.6678104400634766,0.9999999,1.6763886e-07,5.531778e-32,7.14757e-18,8.7557656e-29
0,0,0.6690025329589844,1.0,1.8324941e-24,0.0,0.0,0.0
0,0,0.6697177886962891,1.0,7.231495e-10,1.3493798e-14,4.1663217e-13,2.3993116e-25
0,0,0.6699562072753906,1.0,6.6741903e-13,0.0,0.0,0.0
0,0,0.6701946258544922,1.0,1.1958142e-19,3.9998196e-12,1.4362799e-16,1.0505593e-25
0,0,0.6687641143798828,1.0,5.557311e-08,7.7750824e-27,1.900624e-21,8.629045e-27
0,0,0.6973743438720703,0.81036437,0.18963568,8.758253e-12,1.9447261e-16,2.2568588e-32
0,0,0.6701946258544922,1.0,2.5747826e-33,4.0927805e-17,1.5482634e-15,2.322599e-09
0,0,0.6697177886962891,1.0,1.1545893e-13,2.066536e-27,2.281352e-30,0.0
2,2,0.6687641143798828,4.680605e-21,4.534642e-29,1.0,1.8201917e-38,0.0
0,0,0.6690025329589844,1.0,8.0614704e-10,5.979414e-15,1.1788483e-18,1.3634807e-20
0,0,0.6680488586425781,0.9999988,1.1820489e-06,1.0171848e-31,7.5928555e-14,3.864777e-39
0,0,0.6673336029052734,1.0,2.8605495e-08,2.6358006e-11,2.6246784e-30,3.88962e-36
0,0,0.6699562072753906,1.0,4.534636e-24,0.0,0.0,0.0
0,0,0.6699562072753906,1.0,2.9763518e-15,2.4043946e-08,2.6570537e-09,1.2433714e-23
0,0,0.6699562072753906,1.0,4.5902656e-29,0.0,5.0993077e-30,1.795331e-39
0,0,0.6692409515380859,0.99999964,2.976922e-07,5.0418918e-17,6.015475e-09,1.450757e-22
0,0,0.6697177886962891,1.0,7.384905e-10,3.1619375e-21,1.6794734e-19,2.2104218e-28
0,0,0.6690025329589844,1.0,1.1591171e-09,6.474238e-33,4.1654968e-35,0.0
0,0,0.67138671875,0.9999999,7.3867426e-08,4.3072903e-36,1.9309452e-28,0.0
2,2,0.6926059722900391,4.125854e-18,4.1413548e-33,1.0,2.8845838e-13,1.27864646e-26
0,0,0.6699562072753906,0.99997485,2.5142705e-05,2.0268789e-26,8.46897e-20,7.842043e-30
0,0,0.6697177886962891,1.0,1.9349176e-15,2.4271502e-17,3.6587117e-16,1.0568314e-22
0,0,0.6690025329589844,0.99896836,0.0010316668,3.630993e-16,1.205214e-18,7.727574e-20
0,0,0.6687641143798828,0.99988425,5.131845e-17,6.456382e-38,0.000115739094,2.4172632e-37
0,0,0.6694793701171875,1.0,2.4502295e-14,6.2987885e-18,5.640877e-19,1.9357807e-23
0,0,0.6690025329589844,0.9999988,1.2267217e-06,1.2615103e-31,3.086484e-14,1.8754042e-24
2,2,0.6690025329589844,3.981025e-21,1.8123226e-21,1.0,2.5237577e-34,0.0
0,0,0.6692409515380859,1.0,6.056814e-11,0.0,0.0,0.0
0,0,0.6694793701171875,0.9999554,4.4602017e-05,1.938059e-08,2.6886164e-22,7.017688e-23
0,0,0.6690025329589844,1.0,1.5091798e-18,1.06942576e-26,1.2781528e-28,0.0
2,2,0.6690025329589844,4.9211656e-07,2.4218266e-24,0.9999974,2.1138853e-06,4.368616e-23
0,0,0.6692409515380859,0.99999595,4.0726723e-06,3.4612093e-32,6.000648e-20,0.0
0,0,0.6694793701171875,1.0,7.94385e-25,4.6974024e-28,3.1163174e-19,0.0
0,0,0.6949901580810547,0.99999964,3.6603882e-07,2.2486462e-09,1.2195364e-15,6.6838e-41
1,1,0.6701946258544922,1.6474844e-06,0.99999833,2.3732965e-21,1.9511924e-14,2.9149772e-35
2,2,0.6699562072753906,4.0015845e-26,1.593635e-25,1.0,3.08694e-11,4.80283e-39
0,0,0.6685256958007812,1.0,1.577324e-09,4.9574046e-25,3.314305e-19,1.529907e-34
0,0,0.6728172302246094,0.99816763,0.0018323227,1.0342364e-27,2.632604e-21,7.632416e-27
0,0,0.6692409515380859,0.9999981,1.8721606e-06,2.5311394e-18,4.703907e-11,4.0536124e-34
0,0,0.6704330444335938,1.0,1.0871977e-14,3.010231e-22,2.6005533e-20,3.3082413e-34
0,0,0.6678104400634766,1.0,1.4924797e-14,4.9621234e-22,1.1423349e-18,1.02552684e-32
0,3,0.6687641143798828,0.49871185,8.550905e-05,9.339254e-18,0.50120264,3.3940952e-20
0,0,0.6685256958007812,1.0,8.598666e-16,2.9208585e-13,7.7595026e-18,1.6915649e-22
0,0,0.6687641143798828,1.0,4.1845147e-19,1.8745635e-23,1.35488e-19,4.989458e-36
0,0,0.6680488586425781,1.0,1.3137705e-12,6.8748814e-25,9.5044637e-32,0.0
2,2,0.6687641143798828,2.39946e-16,2.3552145e-16,1.0,3.9788427e-19,8.216686e-11
0,0,0.6711483001708984,1.0,2.5650784e-13,6.0056445e-19,3.463932e-24,0.0
0,0,0.6983280181884766,1.0,2.7384475e-11,4.565209e-09,3.6404173e-09,2.9695538e-33
0,0,0.6704330444335938,1.0,2.5815424e-23,0.0,0.0,0.0
0,0,0.6697177886962891,1.0,5.6559167e-19,2.8347252e-18,5.395743e-18,3.673218e-36
0,0,0.6682872772216797,0.99996984,3.993075e-12,4.5681433e-33,3.0202647e-05,0.0
0,0,0.6687641143798828,1.0,6.7236306e-15,4.5639108e-17,3.5257782e-23,0.0
0,0,0.6685256958007812,1.0,1.7459441e-14,2.9705102e-15,7.1694917e-20,3.3389688e-22
0,0,0.6682872772216797,1.0,2.3228528e-08,3.5225848e-12,5.465314e-15,2.7975194e-21
0,0,0.6763935089111328,1.0,3.851193e-19,2.1981287e-13,3.42295e-31,0.0
0,0,0.6692409515380859,1.0,2.1013054e-09,2.438359e-26,6.32891e-21,3e-45
0,0,0.6694793701171875,1.0,1.7183794e-08,1.0015056e-35,2.8682888e-21,0.0
0,0,0.6699562072753906,1.0,3.8502196e-21,1.3243749e-16,5.6291703e-16,8.840804e-24
0,0,0.6682872772216797,0.9999968,8.918652e-16,1.5719045e-12,3.1705388e-06,3.04457e-27
0,0,0.6682872772216797,1.0,2.254564e-25,1.35372e-23,5.707026e-25,0.0
0,0,0.6682872772216797,1.0,1.20852924e-14,0.0,3.460463e-10,4.1466794e-34
0,0,0.6964206695556641,1.0,2.355162e-11,5.4997056e-27,9.092321e-26,1.1308e-41
0,0,0.6768703460693359,1.0,7.840634e-09,1.3243144e-31,4.463152e-19,8.922e-42
0,0,0.67138671875,0.99999535,1.0675621e-07,6.1308497e-10,4.523331e-06,1.3523271e-20
2,2,0.6701946258544922,7.002275e-16,9.6696034e-08,0.9999999,4.410801e-19,1.3045499e-29
0,0,0.6680488586425781,0.99999654,3.4085438e-06,3.6509047e-24,3.5883714e-16,5.1428696e-31
0,0,0.6694793701171875,1.0,7.4823123e-13,4.5716734e-21,9.2031694e-29,0.0
0,0,0.6699562072753906,1.0,2.4195485e-27,1.8300327e-19,5.3236594e-08,2.7440676e-15
0,0,0.6694793701171875,1.0,6.3098635e-14,6.36852e-17,2.2821319e-14,1.5982644e-14
0,0,0.6692409515380859,1.0,1.985004e-12,7.14238e-14,2.19961e-16,5.376365e-19
0,0,0.6701946258544922,1.0,1.2347734e-16,1.0700437e-15,2.2725658e-19,2.441661e-35
0,0,0.6687641143798828,0.9999999,1.7771559e-07,2.7524463e-21,2.2711379e-17,3.7668522e-24
0,0,0.67138671875,0.9999751,2.4970377e-05,1.2564815e-15,2.2590109e-17,6.0443805e-27
0,0,0.6701946258544922,1.0,8.903628e-11,1.2308756e-30,2.4896423e-13,5.2431e-41
0,0,0.6985664367675781,1.0,2.730931e-15,0.0,0.0,0.0
2,2,0.6718635559082031,1.1160183e-24,1.5695557e-26,1.0,6.97428e-25,3.0048e-41
0,0,0.6704330444335938,1.0,2.4397954e-08,1.993315e-10,1.2215909e-29,2.6863702e-35
0,0,0.6711483001708984,0.9999994,5.7554684e-07,5.6057856e-32,8.5105196e-16,3.286472e-38
0,0,0.6701946258544922,1.0,1.1156219e-25,0.0,0.0,0.0
2,2,0.6692409515380859,0.00021969111,1.2967265e-06,0.99977905,1.9853476e-25,3.0078866e-24
0,0,0.6701946258544922,1.0,6.959111e-12,7.571666e-17,1.8597926e-10,1.0046819e-19
0,0,0.6694793701171875,0.99999917,8.283392e-07,1.5751361e-29,1.7578525e-13,7.0489344e-22
0,0,0.6701946258544922,1.0,1.8722876e-19,2.1162861e-26,0.0,0.0
0,0,0.6692409515380859,1.0,4.2644073e-13,1.3558225e-13,3.3369713e-10,5.0994443e-22
0,0,0.6701946258544922,1.0,2.7204988e-25,4.7059782e-27,5.988924e-18,1.0269307e-20
0,0,0.6701946258544922,0.99999166,8.327031e-06,1.5757359e-12,5.3995487e-14,1.9060185e-27
0,0,0.6709098815917969,1.0,7.662158e-14,0.0,5.9431543e-34,0.0
0,0,0.6785392761230469,0.9999999,7.113741e-08,3.5428695e-14,5.0531573e-13,1.6180285e-23
0,0,0.6909370422363281,1.0,6.2149955e-12,2.8492068e-12,2.2498525e-09,6.061049e-24
0,0,0.67138671875,1.0,4.458245e-22,0.0,2.3407971e-36,2.8297751e-34
0,0,0.6699562072753906,1.0,1.6695799e-10,3.3436547e-25,2.7846976e-23,1.8784899e-34
0,0,0.6701946258544922,0.99762815,0.002371177,7.179651e-07,5.6003286e-09,5.0627773e-16
1,1,0.6709098815917969,3.946982e-08,1.0,2.7099867e-09,3.172598e-26,3.2428015e-37
0,0,0.6718635559082031,1.0,1.5045485e-08,5.6834644e-29,1.2423051e-15,7.5191816e-35
2,2,0.6709098815917969,2.8680953e-11,9.418882e-33,1.0,1.8867841e-20,0.0
0,0,0.67138671875,1.0,1.000347e-08,5.537963e-10,1.2898718e-16,3.5785584e-29
0,0,0.6694793701171875,1.0,2.016563e-20,3.066487e-16,1.4213053e-27,0.0
0,0,0.6694793701171875,1.0,5.9223866e-16,2.8381413e-20,1.0823678e-23,3.7174234e-29
0,0,0.6699562072753906,1.0,1.1494975e-10,1.5425665e-10,1.765299e-25,2.5353036e-37
0,0,0.6692409515380859,0.99999964,3.51352e-07,3.1767766e-25,2.1446814e-18,1.1527613e-26
0,0,0.6697177886962891,0.99999535,4.6041955e-06,4.781751e-12,6.860795e-21,2.9742652e-27
0,0,0.6701946258544922,1.0,6.5550196e-09,8.08851e-19,3.8152712e-16,9.001255e-39
0,0,0.6983280181884766,1.0,3.598034e-12,0.0,3.5491054e-33,0.0
0,0,0.6706714630126953,1.0,0.0,0.0,2.965608e-30,1.1697965e-30
0,0,0.6833076477050781,1.0,3.660611e-08,8.689466e-11,1.8280782e-20,1.4649441e-22
0,0,0.6709098815917969,1.0,2.3648705e-12,2.714326e-21,3.567444e-10,6.4279144e-28
0,0,0.6692409515380859,1.0,1.4108989e-11,5.7924956e-19,2.1628666e-31,1.1090087e-29
2,2,0.6694793701171875,1.9943827e-22,9.8433024e-33,0.9999999,1.5834385e-07,1.3464551e-27
2,2,0.6694793701171875,4.1205169e-13,1.3002237e-28,1.0,2.0810492e-11,5.249734e-28
0,0,0.6706714630126953,1.0,8.8989525e-20,3.4608423e-31,3.3692104e-14,0.0
3,3,0.6694793701171875,5.6376216e-14,4.7368783e-22,0.0,1.0,0.0
0,0,0.6694793701171875,1.0,7.7974814e-11,0.0,0.0,0.0
0,0,0.6694793701171875,1.0,4.136901e-26,0.0,4.1575912e-35,0.0
0,0,0.6718635559082031,1.0,4.1185223e-20,9.2127866e-23,2.3684323e-23,2.307e-42
0,0,0.6704330444335938,0.9999771,1.8534378e-12,2.2919157e-05,1.3698945e-11,7.2134425e-19
0,0,0.6697177886962891,0.9998611,0.00013887865,1.7345598e-29,3.2369329e-18,1.1343989e-26
1,0,0.7007122039794922,0.9990326,0.00096742925,4.3537394e-17,1.8813638e-12,2.243789e-18
0,0,0.6709098815917969,1.0,2.8919603e-32,3.773669e-17,0.0,0.0
2,2,0.6694793701171875,1.8523863e-14,7.0114444e-16,1.0,2.921639e-28,2.751869e-21
0,0,0.6699562072753906,1.0,2.9482234e-09,2.5244462e-15,1.2091992e-08,1.3200942e-21
0,0,0.6697177886962891,1.0,5.4132315e-12,1.153151e-11,1.8857345e-19,1.1602652e-20
0,0,0.67138671875,1.0,1.1591997e-19,1.4701586e-19,1.7785942e-18,4.841268e-12
0,0,0.6704330444335938,1.0,4.770928e-25,0.0,1.573338e-34,6e-45
0,0,0.67138671875,1.0,2.3892357e-19,0.0,5.554338e-33,1.5453605e-37
0,0,0.6704330444335938,0.9976921,3.0965478e-16,0.0023079035,1.7199018e-32,1.3109258e-12
0,0,0.6706714630126953,1.0,6.065655e-12,7.6592725e-12,1.492921e-14,1.4366724e-11
0,0,0.6694793701171875,0.9999994,5.579572e-07,1.057148e-25,2.226474e-21,8.6e-43
0,0,0.67138671875,1.0,4.5587007e-28,1.9600725e-30,6.0968497e-18,3.7179442e-16
0,0,0.6716251373291016,0.99983454,0.00016539093,2.2970281e-26,2.385973e-18,5.5367424e-28
0,0,0.6699562072753906,1.0,1.4371226e-10,4.399101e-14,1.5137623e-12,2.3023158e-23
0,0,0.6730556488037109,1.0,1.7276635e-08,1.9866497e-33,1.7641257e-12,0.0
0,0,0.6692409515380859,1.0,2.8419767e-20,9.031391e-23,3.249975e-09,1.4663955e-14
0,0,0.6704330444335938,1.0,4.8314165e-12,0.0,0.0,0.0
2,2,0.667572021484375,3.221417e-14,6.0221197e-14,1.0,3.275899e-30,1.1855806e-34
0,0,0.6701946258544922,1.0,0.0,7.940826e-31,8.24996e-27,0.0
0,0,0.6706714630126953,1.0,3.22298e-09,1.4199302e-25,4.595481e-24,3.692108e-39
0,0,0.6694793701171875,1.0,2.134453e-09,8.731384e-22,8.332632e-28,1e-45
0,0,0.6692409515380859,1.0,1.3514573e-27,9.5072925e-32,3.2881374e-26,2.2558054e-15
0,0,0.6706714630126953,0.99999845,1.4936481e-06,2.843098e-10,3.217817e-08,7.214356e-22
2,2,0.6692409515380859,2.65605e-17,8.4813926e-15,1.0,4.1861736e-35,8.81117e-40
0,0,0.6706714630126953,1.0,1.4727713e-23,0.0,0.0,0.0
0,0,0.6690025329589844,0.99988973,0.00011025945,3.3264378e-28,1.3637495e-16,1.12085556e-26
0,0,0.6721019744873047,1.0,3.7150387e-12,4.579904e-17,1.5902738e-21,1.202e-42
0,0,0.6990432739257812,1.0,3.6722453e-13,1.8584234e-22,7.092446e-30,0.0
0,0,0.6728172302246094,1.0,8.5130945e-15,1.4241841e-16,2.9585562e-23,1.2299863e-33
0,0,0.6718635559082031,1.0,2.0208344e-11,8.939544e-35,3.527554e-23,0.0
0,0,0.6704330444335938,1.0,9.4463047e-17,1.0708836e-25,0.0,0.0
0,0,0.6725788116455078,1.0,1.4481117e-11,1.2840145e-32,2.5907093e-10,9.815652e-36
0,0,0.6711483001708984,1.0,1.1872347e-08,0.0,1.3706141e-21,0.0
0,0,0.6704330444335938,1.0,1.6435034e-11,3.4368863e-30,1.9939388e-25,1.382e-39
0,0,0.6706714630126953,0.9999224,7.759543e-05,1.8623243e-37,6.443367e-30,0.0
0,0,0.6706714630126953,1.0,1.0683145e-11,3.324631e-23,1.943667e-25,3.9e-44
1,1,0.6704330444335938,0.0016415634,0.9983584,2.3845107e-21,6.1268307e-21,1.3186415e-28
0,0,0.6701946258544922,1.0,3.665921e-12,3.6287907e-36,8.476085e-31,1.05e-43
0,0,0.6704330444335938,1.0,5.4919087e-11,4.8835503e-08,7.324689e-12,4.1868317e-18
0,0,0.6732940673828125,1.0,4.2751984e-09,4.4950013e-34,8.8422005e-21,0.0
1,1,0.6706714630126953,5.52103e-12,1.0,1.1938746e-23,5.244036e-26,1.3595832e-38
0,0,0.6935596466064453,1.0,1.1484023e-13,4.5780802e-20,3.5074092e-33,3.055e-42
0,0,0.67138671875,0.99998593,5.8583754e-07,1.3442997e-05,3.8059892e-11,2.1579015e-14
0,0,0.6718635559082031,1.0,1.626332e-17,4.1358865e-13,1.3041462e-23,8.450587e-29
0,0,0.6709098815917969,1.0,9.308214e-28,2.003451e-28,9.358445e-14,1.2891966e-18
0,0,0.6697177886962891,0.9999999,9.797816e-08,4.657631e-35,4.1182275e-18,1.15296916e-32
0,0,0.67138671875,1.0,1.4333565e-09,0.0,0.0,0.0
0,0,0.6706714630126953,1.0,1.1893607e-08,3.9714794e-12,5.6405e-23,2.2803997e-33
0,0,0.6697177886962891,1.0,2.2756492e-08,7.737866e-18,1.203137e-16,5.85216e-31
1,1,0.6682872772216797,0.0003086834,0.99969137,1.440305e-27,9.315008e-19,1e-45
0,0,0.6694793701171875,0.99934167,0.00065833627,4.876245e-14,3.0795856e-12,1.2081571e-22
0,0,0.6701946258544922,0.9999769,2.281676e-05,1.3660186e-16,2.8555843e-07,5.061476e-30
0,0,0.6699562072753906,0.9963832,0.0036168157,2.624115e-18,1.5886547e-11,2.1442832e-25
0,0,0.6709098815917969,1.0,5.302421e-11,3.0754613e-23,5.58903e-12,2.286806e-30
0,0,0.6694793701171875,1.0,4.3800908e-16,6.2486295e-17,3.0879307e-10,2.5094524e-27
0,0,0.6971359252929688,1.0,5.4284646e-11,1.734383e-30,1.3398131e-15,2.9416244e-27
0,0,0.6833076477050781,1.0,8.916453e-35,0.0,6.888166e-17,1.13243864e-32
2,2,0.6701946258544922,2.387843e-18,3.6785547e-32,1.0,4.844906e-28,5.410731e-39
0,0,0.6711483001708984,1.0,2.0977603e-10,2.5269973e-09,2.0756568e-16,4.5219205e-17
3,3,0.6699562072753906,1.2259594e-08,9.31899e-18,7.376859e-31,1.0,8.18e-43
0,0,0.6709098815917969,1.0,1.3746345e-11,1.2458186e-20,7.0791576e-12,1.2919903e-22
0,0,0.6706714630126953,0.99996614,3.382246e-05,2.555633e-26,1.6128947e-10,7.325553e-21
0,0,0.6709098815917969,1.0,1.5427299e-08,1.5529277e-26,5.0086527e-17,1.2057214e-27
0,0,0.6697177886962891,1.0,4.746396e-13,3.2839783e-32,4.308517e-16,1.8372839e-29
0,0,0.6692409515380859,0.9999957,4.274192e-06,8.30896e-18,5.031984e-10,9.4900236e-35
0,0,0.6785392761230469,1.0,1.341653e-17,1.2767938e-12,2.5740765e-17,2.3263012e-09
0,0,0.6701946258544922,0.99997616,2.3845065e-05,1.4368752e-32,6.5603067e-16,2.8376814e-29
0,0,0.6730556488037109,1.0,1.2129996e-15,3.5145202e-26,1.9359458e-13,5.6688695e-29
0,0,0.6704330444335938,0.9999999,4.808194e-12,6.837969e-08,2.1617307e-21,7.643545e-33
0,0,0.7004737854003906,1.0,1.30831726e-11,3.9399352e-19,2.533164e-17,0.0
0,0,0.6737709045410156,1.0,3.964467e-14,3.1796505e-33,5.7839904e-28,7.095911e-37
0,0,0.6716251373291016,1.0,4.2506284e-16,4.2316593e-12,2.1108017e-20,8.7232354e-20
0,0,0.6718635559082031,1.0,2.3167278e-13,0.0,0.0,0.0
0,0,0.6706714630126953,0.99999785,2.1571873e-06,2.05193e-33,2.6103864e-13,0.0
0,0,0.6697177886962891,1.0,4.649154e-24,0.0,1.1378987e-33,4.27455e-40
0,0,0.6701946258544922,1.0,6.4083133e-10,1.5140646e-17,2.0849327e-13,7.624738e-24
0,0,0.6699562072753906,1.0,6.067263e-12,3.0186563e-32,4.5352512e-35,3e-44
0,0,0.6718635559082031,1.0,4.7852835e-28,0.0,0.0,0.0
0,0,0.6704330444335938,1.0,4.9155567e-12,2.4624323e-23,6.8723726e-15,1.4187254e-36
0,0,0.6697177886962891,0.99999964,5.363498e-08,3.0088864e-07,1.9737068e-09,1.2617618e-08
0,0,0.67138671875,1.0,8.0978294e-20,1.7677055e-24,7.6715973e-31,3.802744e-32
0,0,0.6697177886962891,1.0,1.95825e-10,1.3254127e-21,7.7894275e-14,3e-45
0,0,0.6997585296630859,1.0,1.2668105e-10,3.9538984e-16,1.7651935e-15,1.0746465e-21
1,1,0.675201416015625,4.7850373e-09,1.0,3.931014e-21,1.4536793e-19,2.1099862e-37
0,1,0.6709098815917969,0.09031276,0.9096872,2.0755103e-19,6.246007e-13,9.066033e-25
0,0,0.6704330444335938,1.0,1.3006503e-09,1.3396851e-23,4.994072e-19,3.1934441e-27
0,0,0.6716251373291016,1.0,5.006512e-10,1.5327107e-12,2.4236476e-29,3.5533466e-32
0,0,0.6699562072753906,1.0,4.3810012e-20,1.7758744e-27,2.5810898e-15,9.976323e-19
0,0,0.6730556488037109,1.0,2.2296578e-10,3.271616e-22,5.9679685e-17,0.0
0,0,0.6697177886962891,1.0,4.54448e-13,0.0,0.0,0.0
0,0,0.6692409515380859,1.0,1.845647e-10,1.34459025e-30,1.437847e-17,7.873983e-23
0,0,0.6721019744873047,1.0,8.675836e-15,9.743675e-24,9.178877e-28,0.0
2,2,0.6697177886962891,1.8062659e-25,1.5865423e-35,1.0,4.0107246e-33,0.0
0,0,0.6706714630126953,1.0,1.3009209e-24,4.1334874e-10,3.6827237e-25,4.4876598e-15
0,0,0.6694793701171875,1.0,4.284349e-13,1.2991834e-19,7.04385e-10,2.7442568e-22
0,0,0.6701946258544922,1.0,2.487508e-08,8.856507e-15,2.2698588e-11,6.698277e-25
0,0,0.6978511810302734,1.0,5.167203e-20,1.93807e-17,4.6714082e-18,1.8185108e-24
0,0,0.6721019744873047,1.0,3.8202296e-20,0.0,1.3499298e-38,0.0
3,3,0.6718635559082031,1.8919295e-13,1.4067174e-23,5.86893e-38,1.0,0.0
0,0,0.6699562072753906,1.0,6.596361e-12,4.849141e-20,2.1791682e-13,6.28492e-24
1,1,0.6692409515380859,3.863941e-09,1.0,1.4880551e-20,6.2583645e-24,4.772659e-39
0,0,0.6706714630126953,1.0,2.5536177e-16,0.0,2.5242607e-32,0.0
2,2,0.6687641143798828,1.398147e-23,7.392057e-27,1.0,1.7229405e-24,2.4e-44
0,0,0.6709098815917969,1.0,1.0539042e-08,0.0,1.1583732e-34,0.0
0,0,0.6701946258544922,1.0,2.4475875e-24,2.3846244e-30,5.3882723e-12,0.0
0,0,0.6701946258544922,1.0,2.5770774e-10,2.4378225e-16,1.0789472e-21,3e-45
0,0,0.6692409515380859,1.0,1.1271759e-18,1.9370719e-25,2.3379194e-13,0.0
1,1,0.6697177886962891,7.687255e-12,1.0,2.0047021e-23,7.5008686e-22,1.3011496e-38
0,1,0.6697177886962891,0.028220987,0.971779,8.141792e-15,2.5633837e-16,2.8144225e-17
0,0,0.6690025329589844,1.0,6.78059e-12,1.2739598e-12,4.6969698e-14,7.0364605e-26
0,0,0.6945133209228516,1.0,2.6765987e-11,1.1502695e-10,6.396888e-16,3.881222e-18
2,2,0.6716251373291016,1.3136124e-16,9.173418e-20,1.0,1.447657e-21,7.5313515e-28
0,0,0.6709098815917969,1.0,5.4354476e-11,3.879505e-18,1.0316452e-15,8.6448575e-20
0,0,0.6687641143798828,1.0,5.648894e-32,2.6764685e-13,3.072292e-14,2.6996025e-12
0,0,0.6711483001708984,1.0,8.9926006e-18,1.4370058e-20,8.0172175e-25,3.597979e-23
0,0,0.6699562072753906,1.0,5.053772e-33,9.14102e-31,4.0194445e-23,1.362506e-39
0,0,0.6692409515380859,1.0,1.1920595e-22,3.0517159e-22,1.9015596e-21,4.1298e-41
0,0,0.6694793701171875,1.0,1.8730033e-10,2.637494e-31,5.6031616e-16,3.9557e-41
0,0,0.6694793701171875,1.0,1.3035274e-11,3.0051567e-24,6.6378174e-17,2.9095665e-31
0,0,0.6699562072753906,1.0,1.7216763e-12,1.9584898e-13,3.1059613e-16,8.500717e-18
0,0,0.6699562072753906,0.99723405,7.115156e-14,4.2509496e-32,0.0027659119,0.0
2,2,0.6680488586425781,2.0174745e-24,9.275606e-35,1.0,2.2192724e-32,0.0
0,0,0.6704330444335938,1.0,4.0980947e-12,2.0525865e-08,3.0348185e-26,4.6031236e-19
0,0,0.6690025329589844,1.0,4.4427648e-13,2.288009e-16,2.1115953e-16,8.055639e-30
0,0,0.6971359252929688,1.0,6.29937e-09,2.6447897e-15,7.3462655e-19,6.997681e-39
0,0,0.6701946258544922,1.0,2.1367137e-09,6.983148e-09,3.2822642e-31,6.875471e-36
0,0,0.6687641143798828,0.9999999,1.1873099e-07,9.435365e-15,3.3724707e-21,2.2122386e-25
0,0,0.6685256958007812,1.0,6.423154e-11,9.387545e-15,7.979547e-11,3.0483667e-13
0,0,0.6697177886962891,0.99999774,2.2780305e-06,5.1914216e-17,1.9488302e-17,1.6411053e-31
0,0,0.6692409515380859,1.0,4.8641554e-13,1.9004985e-31,4.5969444e-28,1.48e-42
0,0,0.6690025329589844,0.9999969,3.0736073e-06,4.8543573e-15,1.3943573e-13,1.1914055e-22
0,0,0.6694793701171875,1.0,1.1886003e-09,6.925501e-32,3.1884837e-16,6.397506e-36
0,0,0.6690025329589844,1.0,5.8231347e-27,0.0,1.4187381e-34,0.0
0,0,0.6690025329589844,1.0,1.8648144e-11,5.4915603e-31,4.4381734e-21,1.0618e-41
0,0,0.6687641143798828,1.0,3.4107515e-11,4.8455056e-17,5.6715497e-11,5.631521e-35
1,1,0.6690025329589844,7.138672e-15,1.0,1.5228483e-29,1.1379546e-34,1.3903465e-35
0,0,0.6694793701171875,1.0,2.7315534e-17,6.7271235e-14,2.6762868e-19,2.1e-44
0,0,0.6692409515380859,0.99994016,9.9260745e-08,2.4746624e-12,5.979371e-05,6.8825836e-23
0,0,0.6911754608154297,0.9997546,0.00024534678,7.810521e-12,6.326149e-10,1.956667e-26
2,2,0.6716251373291016,2.2489704e-19,1.1779352e-19,1.0,1.12955684e-32,0.0
0,0,0.6718635559082031,1.0,6.4056013e-25,2.3725494e-36,1.1533228e-22,1.5203313e-26
0,0,0.6694793701171875,0.99980706,0.00019293629,2.489222e-22,2.468861e-15,6.3898756e-38
0,0,0.6709098815917969,0.9999999,1.0474535e-11,2.464161e-23,7.3470765e-08,1.2987e-41
0,0,0.6680488586425781,0.9999969,3.131952e-06,4.2316746e-29,7.129908e-24,0.0
0,0,0.6682872772216797,1.0,7.407317e-15,0.0,0.0,0.0
0,0,0.6680488586425781,0.99342716,0.0040118606,0.002560929,4.4729823e-08,9.492665e-31
0,0,0.6694793701171875,1.0,1.767062e-20,0.0,1.2421812e-16,0.0
0,0,0.6744861602783203,1.0,4.4204356e-08,1.5228685e-14,2.1445336e-27,6.21185e-36
0,0,0.6699562072753906,1.0,4.4791705e-14,1.777849e-17,7.15218e-18,1.0115376e-21
0,1,0.6701946258544922,0.112919144,0.88708085,4.258108e-18,1.7633228e-08,6.1594333e-25
0,0,0.67138671875,1.0,4.265124e-09,6.5569956e-28,9.9750736e-18,1.2451118e-33
0,0,0.6961822509765625,1.0,1.9400165e-16,1.15422715e-26,5.1050944e-20,1.10443e-40
2,2,0.6699562072753906,3.8489815e-12,7.021842e-20,1.0,1.8395602e-25,2.657238e-30
0,0,0.6690025329589844,1.0,5.4668777e-15,4.248394e-30,9.56458e-33,0.0
2,2,0.6680488586425781,2.6626686e-29,8.8319175e-29,1.0,2.1668277e-26,1.504926e-39
0,0,0.6687641143798828,1.0,1.8475552e-26,7.0490686e-24,1.7880493e-19,7.106362e-16
1,1,0.6749629974365234,4.189401e-12,1.0,2.2053843e-14,3.1851312e-37,5.77611e-23
0,0,0.6678104400634766,1.0,1.7862231e-18,6.40516e-14,5.187853e-16,2.8926982e-25
0,0,0.6687641143798828,0.998637,0.0013629464,1.4566893e-13,3.71275e-12,6.0784535e-30
0,0,0.6685256958007812,0.99999976,2.453579e-07,6.48297e-30,5.8847146e-14,1.7757079e-23
0,0,0.6694793701171875,1.0,5.1653294e-13,9.1004e-12,9.992162e-09,6.2538975e-25
0,0,0.67138671875,1.0,1.2859246e-08,2.0188238e-22,9.632833e-14,1.315327e-39
0,0,0.6701946258544922,1.0,1.6678867e-10,3.2763327e-17,3.7897756e-21,1.0943375e-37
0,0,0.6697177886962891,0.9999342,6.5813605e-05,1.1275045e-28,7.705141e-16,2.7594474e-27
2,2,0.6690025329589844,1.5416737e-12,2.3163457e-11,1.0,2.5765674e-13,5.4195365e-22
2,2,0.6990432739257812,2.5706767e-13,2.1323212e-20,1.0,3.2530572e-09,1.2518053e-37
0,0,0.6709098815917969,1.0,1.6920292e-38,0.0,0.0,0.0
0,0,0.6682872772216797,0.99983895,0.0001609787,3.8120268e-22,1.0762709e-20,1.0796599e-26
0,0,0.6697177886962891,1.0,2.0356264e-16,9.473198e-15,1.4209229e-31,0.0
0,0,0.6701946258544922,1.0,2.4485722e-13,4.1646324e-23,2.1761272e-21,8.691854e-33
0,0,0.6692409515380859,1.0,7.3151503e-09,5.1581863e-34,1.9942685e-30,0.0
0,0,0.6685256958007812,1.0,9.622778e-16,0.0,0.0,0.0
0,0,0.6673336029052734,1.0,7.016368e-12,6.858607e-12,4.463796e-13,2.7069265e-14
0,0,0.6687641143798828,1.0,2.2509697e-27,3.4955203e-26,7.0755117e-20,2.2161502e-17
0,0,0.6699562072753906,1.0,6.260041e-11,4.13531e-17,5.451534e-21,2.97e-43
0,0,0.6694793701171875,0.9999994,5.7693165e-07,1.3296777e-26,5.9297044e-17,2.3949373e-34
0,0,0.6687641143798828,0.99999964,3.138627e-07,1.0915781e-28,1.3124504e-23,0.0
0,0,0.6699562072753906,1.0,8.1251795e-21,1.2749934e-34,2.2082265e-13,2.2837995e-29
0,0,0.6682872772216797,1.0,4.3760683e-30,0.0,5.797476e-32,4.18314e-40
0,0,0.6928443908691406,1.0,4.679503e-19,2.1275853e-19,1.3764045e-20,8.959197e-22
2,2,0.6687641143798828,9.111547e-28,0.0,1.0,0.0,0.0
0,0,0.6694793701171875,1.0,6.77401e-12,2.5369473e-23,2.19788e-14,1.7131515e-36
0,0,0.6680488586425781,0.9999993,6.0532814e-09,2.3948655e-18,7.665453e-07,3.475779e-22
0,0,0.6687641143798828,1.0,1.8793283e-08,4.886226e-11,4.059655e-27,3.6889332e-35
0,0,0.6690025329589844,1.0,1.5999699e-25,4.7811614e-35,3.2369866e-26,0.0
0,0,0.6694793701171875,1.0,3.575288e-27,5.8089986e-28,1.6431418e-20,1.4269989e-19
0,0,0.6701946258544922,0.99999976,1.7355663e-16,1.350492e-10,1.9437175e-07,6.4074826e-17
0,0,0.6685256958007812,1.0,1.5646133e-09,2.9108213e-16,9.484567e-12,4.842162e-24
0,0,0.6682872772216797,0.99999964,3.8145083e-07,3.5191192e-19,1.652808e-11,8.998023e-32
0,0,0.667572021484375,1.0,4.586977e-09,8.8543e-25,4.7373336e-13,6.53e-43
0,0,0.6687641143798828,1.0,2.1972706e-08,7.0855465e-16,1.7597794e-17,3.2630942e-27
0,0,0.6678104400634766,1.0,1.3652983e-11,4.483072e-16,1.9451953e-17,3.102758e-27
0,0,0.6694793701171875,1.0,3.0530103e-13,1.9098746e-15,3.7776646e-14,8.3744903e-16
0,0,0.698089599609375,1.0,7.306226e-09,4.574013e-20,4.336542e-19,1.3437987e-25
2,2,0.6704330444335938,1.7194322e-19,5.685896e-28,1.0,2.4094737e-18,6.176987e-39
0,0,0.6694793701171875,0.9999169,8.3035746e-05,9.446237e-14,2.5945053e-13,2.1720501e-27
2,2,0.6692409515380859,6.530226e-16,2.4250526e-22,1.0,2.4011426e-14,7.6926464e-21
0,0,0.6682872772216797,1.0,4.234944e-09,2.9669178e-32,3.8968462e-17,0.0
0,0,0.6687641143798828,1.0,4.8812786e-38,0.0,1.7005966e-38,0.0
0,0,0.6685256958007812,1.0,2.0431836e-13,1.5730593e-22,2.4584113e-11,3.174226e-22
0,0,0.667572021484375,1.0,4.2682198e-11,1.5985594e-19,3.6290534e-21,0.0
1,0,0.6680488586425781,0.90272653,0.097273424,1.0102325e-12,1.6356473e-18,5.171354e-26
0,0,0.6682872772216797,1.0,3.233151e-17,0.0,1.7327791e-34,8.56e-43
2,0,0.6685256958007812,0.99963593,1.5505178e-31,0.00036217552,1.8996891e-06,2.2273192e-11
1,1,0.6678104400634766,1.3975535e-10,1.0,2.0735529e-30,7.6888003e-22,7.829669e-34
0,0,0.6680488586425781,0.9953517,1.5157706e-05,0.004633181,4.7798792e-08,8.045256e-13
0,0,0.6685256958007812,1.0,6.5337202e-37,0.0,0.0,0.0
0,0,0.6723403930664062,0.9999999,8.1749754e-08,2.1208898e-36,1.15240636e-17,0.0
0,0,0.6687641143798828,1.0,6.329135e-26,2.564278e-23,1.1269446e-24,1.3679782e-18
0,0,0.6687641143798828,1.0,2.0091863e-10,9.590448e-10,1.9213767e-15,3.5262702e-26
0,0,0.6704330444335938,1.0,9.825644e-16,2.407029e-19,6.032744e-25,4.8828657e-21
0,0,0.6699562072753906,1.0,4.8728013e-09,3.469919e-11,1.8681466e-30,2.3764178e-35
2,2,0.6694793701171875,2.7629004e-23,1.5577015e-29,1.0,1.9486628e-18,1e-45
0,0,0.6680488586425781,1.0,1.003981e-34,8.095629e-37,2.6432063e-30,0.0
0,0,0.6690025329589844,0.99999964,3.030901e-07,6.059413e-37,7.508159e-24,0.0
0,0,0.6670951843261719,1.0,9.101186e-11,4.7476747e-16,2.140955e-18,2.2000573e-21
0,0,0.6699562072753906,0.99986863,0.0001313052,3.5581152e-25,1.9331733e-15,1.2022146e-28
0,0,0.6692409515380859,0.9999982,1.8272859e-06,9.964366e-11,1.5186166e-10,2.0585726e-24
0,0,0.6692409515380859,1.0,1.3171552e-12,1.695515e-19,4.0025666e-16,3.8492e-24
0,0,0.6685256958007812,1.0,6.2844695e-15,1.9587199e-22,1.2347084e-22,1.9286395e-22
0,0,0.720977783203125,1.0,2.3961033e-12,1.783055e-36,6.435338e-24,0.0
2,0,0.6768703460693359,0.88823324,5.260166e-06,0.11172131,4.0176867e-05,2.8e-44
0,0,0.6692409515380859,0.99809474,0.0019052732,4.6241018e-20,9.614555e-10,4.980215e-22
0,0,0.6678104400634766,0.99999976,2.0224807e-07,3.8975838e-27,4.4301647e-24,7.36658e-34
0,0,0.6682872772216797,1.0,2.8009367e-21,4.653911e-16,8.419822e-15,5.086879e-20
2,2,0.6682872772216797,2.0183801e-19,7.0825416e-25,1.0,8.44854e-18,8.6443165e-38
0,0,0.67138671875,1.0,1.664825e-30,1.5000187e-34,2.0031733e-23,2.5364946e-36
0,0,0.6721019744873047,1.0,4.8216933e-09,2.338476e-10,1.4492584e-11,1.2437165e-25
0,0,0.6721019744873047,1.0,2.1472788e-09,1.3242539e-31,4.0391032e-23,0.0
0,0,0.6694793701171875,1.0,8.268887e-10,1.0971901e-19,5.921212e-16,6.2840995e-33
0,0,0.6706714630126953,1.0,2.4378233e-23,1.8831259e-18,9.809124e-13,1.8008122e-15
0,0,0.6697177886962891,1.0,1.3884263e-30,0.0,4.3796364e-25,8.9878145e-37
0,0,0.6685256958007812,1.0,3.2347672e-17,1.6691982e-17,2.2322894e-16,1.7763895e-34
0,0,0.6692409515380859,0.9999999,6.714785e-08,3.6054165e-13,1.9099671e-17,3.2351463e-26
0,0,0.7023811340332031,1.0,1.9101689e-12,3.9496435e-18,5.7148806e-21,4.2074086e-24
0,0,0.6704330444335938,1.0,4.2934296e-09,7.8823545e-19,1.6935516e-17,2.665008e-27
0,0,0.6680488586425781,1.0,2.0614573e-12,1.2807337e-22,8.75069e-22,1.7596629e-27
0,0,0.6833076477050781,1.0,2.6917696e-10,2.3512175e-18,1.1318831e-22,5.0530003e-18
0,0,0.6697177886962891,1.0,2.6972635e-10,6.923147e-33,2.8279516e-19,1.47875e-39
3,3,0.6678104400634766,5.4914348e-05,8.362108e-20,0.0,0.99994504,4.0321e-41
0,0,0.6687641143798828,1.0,1.562618e-13,3.5146792e-27,3.013767e-24,0.0
0,0,0.6692409515380859,1.0,2.171327e-09,4.66666e-30,6.041059e-13,7.793e-41
0,0,0.6680488586425781,1.0,2.5869415e-14,0.0,4.4661604e-22,0.0
0,0,0.6694793701171875,1.0,1.6453673e-10,1.405429e-13,1.255278e-28,2.7687254e-37
0,0,0.6692409515380859,0.99962175,0.0003782555,5.4922576e-20,3.4030647e-17,6.72557e-24
1,1,0.6678104400634766,4.3194607e-16,1.0,1.5042805e-21,9.6463575e-27,6.8133244e-38
0,0,0.6754398345947266,1.0,1.9375068e-11,5.95656e-10,6.2959653e-22,1.5273393e-29
1,1,0.6685256958007812,8.660192e-06,0.9999913,3.157088e-14,1.0897634e-09,1.2217066e-28
0,0,0.6947517395019531,1.0,1.9815748e-14,5.9138504e-32,3.2874574e-20,0.0
0,0,0.6699562072753906,1.0,1.6063492e-09,0.0,0.0,8.19251e-33
0,0,0.6687641143798828,1.0,3.5011032e-31,0.0,1.4011031e-33,0.0
0,0,0.6687641143798828,1.0,6.5963194e-17,1.6694233e-22,1.3315152e-12,4.2902252e-33
0,0,0.6699562072753906,1.0,5.662356e-32,1.0034734e-23,8.036259e-26,1e-44
0,1,0.6694793701171875,0.02062334,0.97937644,2.1882765e-07,2.3102922e-27,8.122366e-20
0,0,0.6692409515380859,1.0,1.6125432e-10,1.7697531e-13,1.2548376e-28,1.8273189e-34
0,0,0.6775856018066406,1.0,3.186984e-11,2.4943402e-23,1.8114968e-17,5.52246e-39
0,0,0.6690025329589844,1.0,8.099175e-31,1.5918645e-28,8.1367377e-16,7.292389e-16
0,0,0.6668567657470703,1.0,1.9293844e-13,7.256426e-16,1.3469685e-09,3.7464118e-27
0,0,0.6697177886962891,1.0,7.6473514e-22,2.0335861e-15,3.3924954e-37,1.1949002e-37
0,1,0.6682872772216797,0.00018062387,0.9997856,6.011861e-16,3.3778837e-05,5.81216e-14
0,0,0.6709098815917969,1.0,5.75203e-13,1.1201262e-23,1.0837508e-25,1.3e-44
1,1,0.6687641143798828,8.2998766e-13,1.0,1.3815344e-26,8.310566e-29,5.19886e-40
0,0,0.6966590881347656,1.0,3.4804426e-20,1.9660977e-33,7.195914e-10,6.168166e-36
0,0,0.6706714630126953,1.0,7.625893e-19,9.6680016e-23,0.0,0.0
0,0,0.6773471832275391,0.98350626,8.641927e-21,1.0056074e-18,0.016493782,8.249512e-30
0,0,0.6701946258544922,1.0,9.309279e-09,1.4968839e-22,3.3831782e-29,5.852761e-39
0,0,0.6694793701171875,1.0,3.5506666e-08,7.902535e-32,4.5518618e-17,1.910057e-22
0,0,0.6673336029052734,1.0,5.5681517e-09,1.0035592e-20,1.5068441e-18,5.5220316e-34
0,0,0.6697177886962891,1.0,2.2170503e-10,5.2698968e-14,7.124629e-24,1e-45
2,2,0.6678104400634766,1.9198412e-08,3.901595e-15,1.0,4.8897694e-26,8.676318e-18
0,0,0.6687641143798828,1.0,4.563129e-24,2.140343e-25,3.4195593e-22,6.28949e-20
0,0,0.6680488586425781,1.0,4.5442536e-21,0.0,0.0,0.0
0,0,0.6697177886962891,1.0,3.1902617e-15,8.1868836e-19,1.1496722e-15,1.4907e-41
0,0,0.6754398345947266,1.0,2.4940555e-11,6.2854544e-22,1.2880277e-09,1.039584e-33
0,0,0.6690025329589844,1.0,3.3466927e-17,2.1163461e-15,3.7185735e-21,2.6262837e-20
0,0,0.6983280181884766,1.0,5.7372756e-19,2.9348175e-22,6.409794e-21,1.28981795e-23
0,0,0.6756782531738281,1.0,5.2860737e-18,7.4146347e-16,9.951386e-20,1.0865738e-25
0,0,0.667572021484375,1.0,5.378381e-17,6.04795e-18,5.6421712e-18,7.453237e-29
0,0,0.6692409515380859,1.0,7.511142e-16,8.898087e-16,2.3128448e-30,6e-45
0,0,0.6673336029052734,0.99999964,1.655924e-09,3.9303237e-13,3.314883e-07,9.109482e-15
0,0,0.6690025329589844,1.0,1.7158638e-16,0.0,1.0770615e-33,4.466632e-39
0,0,0.6685256958007812,1.0,2.6664472e-31,0.0,1.8875618e-35,0.0
2,2,0.6787776947021484,7.863104e-19,2.7531861e-33,1.0,3.7962182e-19,9.051e-42
0,0,0.6699562072753906,0.9985341,0.0014659587,2.8083816e-33,2.3820103e-22,3e-45
0,0,0.6690025329589844,1.0,1.3418731e-17,5.641156e-27,2.601504e-29,1.06e-42
0,0,0.6694793701171875,0.9786638,1.7675103e-11,0.021336205,4.1683786e-20,4.9726604e-16
0,0,0.6670951843261719,1.0,2.339076e-12,5.144085e-16,1.8121596e-14,3.2093263e-12
0,0,0.6716251373291016,1.0,2.5468843e-17,2.513715e-13,1.1017637e-08,2.0586616e-25
0,0,0.6690025329589844,0.92246693,0.07752708,3.8998183e-18,5.944417e-06,1.4695129e-20
0,0,0.6999969482421875,0.99691296,0.0030869818,1.1061756e-22,7.4478045e-19,1.8274055e-27
0,0,0.6706714630126953,1.0,5.913677e-22,0.0,8.794073e-34,0.0
0,0,0.6766319274902344,0.99999905,2.2768467e-07,1.1073732e-19,6.8831764e-07,5.0347807e-23
0,0,0.6697177886962891,1.0,4.881612e-16,1.5247154e-20,4.4223966e-25,1.9544e-41
0,1,0.6680488586425781,0.08171019,0.91828984,7.00252e-17,1.01120646e-22,1.1088761e-26
0,0,0.6687641143798828,1.0,4.8547917e-14,1.8278601e-22,2.9267431e-16,3.701022e-30
0,0,0.6699562072753906,1.0,6.514723e-09,6.701396e-10,5.29217e-17,1.9112968e-10
0,0,0.6699562072753906,1.0,2.119003e-12,4.963345e-18,6.594174e-19,0.0
0,0,0.6697177886962891,0.99999976,1.8555077e-07,6.397707e-19,1.732616e-16,1.580635e-33
1,1,0.667572021484375,2.6937875e-18,0.9999943,5.6814924e-06,4.3739205e-24,1.0828543e-13
0,0,0.6687641143798828,1.0,4.985866e-12,1.6260042e-16,1.4574908e-12,3.4003678e-17
0,0,0.675201416015625,1.0,3.108188e-17,0.0,1.6580314e-37,3.312048e-38
0,0,0.6697177886962891,0.96266776,0.03733227,5.79425e-10,8.688657e-12,1.4622358e-13
0,0,0.6697177886962891,0.99967074,0.00032927137,1.0487543e-29,5.280613e-15,4.4263766e-31
0,0,0.7441043853759766,0.99998176,1.8283272e-05,1.2916772e-28,5.766061e-21,0.0
0,0,0.6732940673828125,1.0,2.4297597e-08,1.375785e-20,9.939061e-19,1.3610418e-30
0,0,0.6692409515380859,1.0,2.0102771e-23,0.0,0.0,0.0
0,0,0.6697177886962891,1.0,5.9633326e-11,4.2814727e-36,8.7480586e-21,0.0
0,0,0.6680488586425781,1.0,1.3565538e-14,3.2995538e-14,5.6664057e-10,8.609339e-22
0,0,0.6697177886962891,0.9999982,1.7457515e-06,6.284509e-37,8.8859204e-14,0.0
0,0,0.6701946258544922,0.9984693,0.001530716,5.68053e-20,5.4927154e-18,1.995145e-24
0,0,0.6678104400634766,1.0,1.7417899e-10,3.8897837e-21,2.6487298e-13,2.3630617e-31
0,0,0.6685256958007812,1.0,7.499784e-10,3.343979e-37,8.9477795e-32,0.0
0,0,0.6690025329589844,1.0,4.6095602e-17,1.0752051e-27,2.6800187e-32,0.0
0,0,0.6680488586425781,1.0,1.0644353e-08,3.114168e-18,4.9071995e-20,7.56444e-34
0,0,0.6692409515380859,1.0,2.3867904e-11,1.1004519e-33,4.2986113e-19,1.03813725e-26
0,0,0.6685256958007812,0.9999938,1.268598e-16,6.24803e-06,2.3551251e-11,9.704444e-16
0,0,0.6687641143798828,0.9999994,5.4164536e-07,1.1029668e-21,1.7834937e-12,7.341763e-38
2,2,0.6935596466064453,4.7993714e-12,6.817928e-23,1.0,7.761179e-21,5.1932856e-13
0,0,0.6844997406005859,0.99999976,2.7009224e-07,1.5349289e-26,9.172163e-11,2.0048921e-31
0,0,0.6699562072753906,1.0,1.5392226e-13,1.4931986e-12,2.0829948e-15,2.609448e-19
0,0,0.6680488586425781,0.99999964,2.9829994e-08,3.738853e-07,4.3590105e-09,1.19970675e-26
0,0,0.6692409515380859,1.0,3.0825698e-10,9.516532e-12,8.54012e-12,1.8686284e-25
0,0,0.6701946258544922,1.0,2.482005e-35,0.0,1.9937188e-32,9.875928e-37
0,0,0.6690025329589844,1.0,4.1974136e-28,1.4783217e-30,6.2018717e-13,6.6936334e-16
0,0,0.6678104400634766,1.0,4.5381433e-34,6.40717e-31,5.211612e-25,2.961e-42
2,2,0.6680488586425781,5.254046e-19,1.6492378e-37,1.0,3.7860726e-23,9.07e-43
0,0,0.6690025329589844,1.0,2.4317515e-21,0.0,1.567604e-35,0.0
0,0,0.6718635559082031,0.9999999,8.400408e-12,4.0441997e-11,1.358187e-07,6.928472e-28
0,0,0.6690025329589844,1.0,7.0598545e-33,0.0,5.357642e-38,0.0
0,0,0.6673336029052734,1.0,8.50971e-13,8.6007985e-16,4.5095056e-15,9.3804465e-17
0,0,0.6921291351318359,1.0,1.5099236e-09,3.6185898e-28,5.676395e-12,1.1516808e-33
0,0,0.6718635559082031,0.9999999,6.7561906e-08,1.197942e-26,1.8986078e-15,1.3497379e-32
0,0,0.6694793701171875,1.0,4.2127323e-13,4.9735567e-12,4.7827082e-29,9.720322e-09
0,0,0.6697177886962891,1.0,7.806901e-11,5.870588e-15,3.954864e-12,1.5369441e-19
0,0,0.6690025329589844,1.0,2.6424902e-15,8.78382e-25,1.0915814e-15,3.9067e-41
0,0,0.6687641143798828,1.0,7.4655515e-16,4.1691825e-21,1.4390629e-20,2.718258e-39
0,0,0.6706714630126953,1.0,6.363985e-11,8.675555e-11,1.0077968e-08,7.904948e-24
0,0,0.6699562072753906,0.99999857,1.3912138e-06,2.0577361e-29,8.7110505e-13,0.0
0,0,0.6692409515380859,0.9883718,0.011628209,6.913656e-10,6.890332e-09,5.9230235e-21
0,0,0.6685256958007812,0.9999937,2.722531e-22,1.5795462e-11,6.3490365e-06,3.0998463e-23
0,0,0.6685256958007812,1.0,3.1175985e-21,4.1414548e-23,3.7332983e-21,1.7232733e-34
0,0,0.6685256958007812,1.0,1.7817635e-09,2.172002e-09,4.1851153e-37,1.3158802e-37
0,0,0.6799697875976562,0.9999902,9.764467e-06,6.8235004e-25,3.064897e-19,1.6861999e-31
0,0,0.6787776947021484,1.0,1.5646506e-30,0.0,1.4804334e-21,1.6660593e-35
0,0,0.7038116455078125,1.0,5.277946e-21,1.147854e-22,0.0,0.0
0,0,0.6711483001708984,1.0,6.841319e-09,2.2053643e-32,1.9549875e-22,0.0
0,0,0.6706714630126953,0.9999999,1.3041105e-07,2.8094065e-17,2.9120523e-17,3.3906956e-22
0,0,0.6947517395019531,1.0,2.2794202e-23,3.7067986e-24,2.0955742e-20,2.4642775e-20
0,1,0.6773471832275391,0.0040597594,0.9959402,2.8105668e-35,3.0412332e-34,0.0
0,0,0.6706714630126953,1.0,4.4287568e-27,6.5147904e-34,1.2393197e-13,7.7773733e-25
0,0,0.6690025329589844,0.99059767,0.009402297,1.0739863e-11,1.6502532e-16,3.2653254e-15
0,0,0.6687641143798828,1.0,9.0510913e-29,7.689653e-29,1.2219734e-21,3.309671e-17
0,0,0.6697177886962891,1.0,9.9334e-14,1.055549e-17,2.0486925e-14,2.615899e-32
0,0,0.6709098815917969,1.0,1.1859846e-17,2.9157054e-20,6.769155e-23,1.4553404e-31
0,0,0.6721019744873047,1.0,2.2292794e-29,0.0,5.9116156e-25,4.070206e-16
1,1,0.6711483001708984,1.1144446e-06,0.9999989,2.3494494e-25,2.050989e-37,0.0
0,0,0.6694793701171875,1.0,1.4791508e-15,1.9098388e-22,1.1535631e-25,0.0
0,0,0.6697177886962891,0.99999547,4.52372e-06,1.4146391e-21,1.1644419e-19,1.2284268e-21
0,0,0.7092952728271484,1.0,2.7868026e-11,3.803662e-15,4.637691e-10,4.067308e-29
0,0,0.6721019744873047,0.9996499,6.907645e-05,0.00028095182,8.706357e-12,1.2872168e-11
0,0,0.6687641143798828,0.9999933,6.7340634e-06,0.0,5.8907943e-34,0.0
0,0,0.6690025329589844,1.0,5.754391e-20,2.6635856e-27,2.8622031e-08,2.31e-43
2,2,0.6701946258544922,3.936387e-28,6.4203803e-24,1.0,1.2816997e-17,2.6653136e-34
0,0,0.6694793701171875,1.0,2.1184452e-16,4.1641847e-13,6.6928207e-15,1.31189205e-20
0,0,0.6685256958007812,1.0,2.2849995e-24,1.9648617e-32,2.4267022e-20,1.6036502e-30
0,0,0.6690025329589844,0.9999999,2.6490646e-08,1.00029506e-20,7.255209e-08,8.4353475e-30
0,0,0.682830810546875,0.9997352,0.00026481313,4.326142e-19,2.3410087e-20,2.7080496e-24
0,0,0.6830692291259766,1.0,2.537858e-11,2.1784192e-29,5.995977e-14,3.03e-43
0,0,0.6704330444335938,1.0,7.073295e-21,1.630262e-27,6.0693424e-21,2.7e-44
0,0,0.6690025329589844,1.0,9.885948e-16,5.412307e-37,2.663112e-24,5.3e-44
0,0,0.6685256958007812,1.0,2.6179663e-09,4.7514817e-15,5.3801992e-20,3.4752583e-33
0,0,0.6699562072753906,1.0,4.615408e-22,2.493019e-22,2.538999e-16,5.3155298e-20
0,0,0.7212162017822266,0.999992,7.94056e-06,0.0,3.9917962e-33,0.0
0,0,0.67138671875,1.0,1.1585402e-09,7.371452e-25,1.2604613e-19,2.746454e-31
0,0,0.6685256958007812,1.0,2.7194437e-15,9.107012e-09,1.2861864e-09,6.4612324e-26
0,0,0.6690025329589844,1.0,5.6490288e-11,2.993111e-08,6.7454417e-15,6.342547e-19
2,2,0.6670951843261719,3.9178808e-23,1.8553199e-23,1.0,1.1135801e-19,1.1298887e-24
0,0,0.6690025329589844,0.99999905,9.77767e-07,2.030985e-17,2.341075e-18,4.525e-42
0,0,0.6701946258544922,1.0,1.1191114e-20,3.1079656e-38,1.9197329e-33,0.0
0,0,0.6690025329589844,1.0,6.684347e-12,1.3544335e-22,1.7753126e-19,2.7890418e-33
0,0,0.6687641143798828,1.0,4.0400512e-19,1.5717825e-21,2.0717816e-15,5.4699063e-21
0,0,0.6694793701171875,0.99976045,0.00023951005,1.0028591e-21,4.204539e-17,1.9558745e-24
0,0,0.6730556488037109,1.0,2.9243535e-17,4.48533e-16,1.4198402e-22,9.266951e-25
0,0,0.7636547088623047,0.999995,5.0154717e-06,3.786104e-27,1.37101735e-14,1.7423546e-34
0,0,0.8001327514648438,1.0,1.7723312e-16,9.902929e-32,3.3871778e-31,0.0
0,0,0.7796287536621094,1.0,1.2623328e-08,3.1931123e-14,1.6128988e-19,9.873739e-23
0,0,0.7081031799316406,0.9993406,0.0006593981,6.3909083e-18,1.070607e-12,6.1142694e-19
0,0,0.6718635559082031,0.9999999,1.9604683e-15,1.6313653e-07,2.4469448e-15,2.3425242e-14
0,0,0.6716251373291016,1.0,9.161757e-12,3.2802496e-23,2.9440083e-17,2.41627e-30
0,0,0.6699562072753906,1.0,1.0070397e-08,2.0338421e-15,1.4683001e-31,2.670126e-35
0,0,0.6711483001708984,1.0,3.0055936e-08,1.494718e-34,1.2989798e-12,0.0
0,0,0.6706714630126953,0.99999475,6.4234205e-09,8.5887135e-33,5.1866646e-06,3e-45
0,0,0.6697177886962891,0.90161675,0.09838319,4.6342943e-17,1.1871571e-08,3.2491742e-16
0,0,0.6711483001708984,1.0,6.218915e-10,5.3268913e-30,8.361595e-16,5.3727916e-36
0,0,0.6701946258544922,1.0,9.485654e-19,0.0,1.1765724e-30,0.0
0,0,0.6682872772216797,1.0,4.5688215e-14,2.4234174e-13,2.3312411e-16,4.7887573e-26
0,0,0.6690025329589844,1.0,1.7234966e-12,4.9325773e-11,1.2810247e-14,4.589343e-19
0,0,0.6680488586425781,1.0,2.0428175e-09,3.7829955e-24,3.6804674e-11,1.1e-43
0,0,0.7157325744628906,1.0,3.890057e-33,4.262323e-37,1.842695e-30,0.0
0,0,0.6697177886962891,1.0,4.3015586e-10,5.654618e-13,8.1071975e-27,8.892741e-35
0,0,0.6697177886962891,0.99999917,8.023387e-07,4.0548463e-23,1.435659e-17,7.590474e-35
0,0,0.6704330444335938,1.0,3.2164706e-09,4.3858378e-18,1.5282013e-15,1.079529e-26
0,0,0.6706714630126953,0.9999994,5.9685414e-07,1.3657565e-33,4.6758934e-20,0.0
1,1,0.6694793701171875,8.225978e-09,1.0,5.2917555e-21,1.976731e-26,1.6701408e-32
0,0,0.6687641143798828,1.0,1.1035002e-09,0.0,2.9181046e-38,0.0
0,0,0.6685256958007812,1.0,8.358742e-12,8.286277e-12,4.110947e-17,4.130499e-18
0,0,0.6692409515380859,1.0,1.6865839e-15,6.174475e-29,2.9920654e-20,3.462597e-39
3,3,0.6690025329589844,1.7644261e-07,4.6092073e-25,9.747748e-12,0.9999999,0.0
0,0,0.6692409515380859,0.9999999,8.79132e-08,6.19432e-35,3.820866e-11,0.0
0,0,0.6690025329589844,1.0,2.4255264e-09,2.5083808e-27,6.2607237e-18,1.10124336e-29
0,0,0.6814002990722656,1.0,1.0783578e-23,1.1704157e-25,9.336903e-15,1.8390444e-21
0,0,0.6682872772216797,1.0,5.602326e-13,1.1738306e-27,2.0400213e-21,0.0
0,0,0.7224082946777344,1.0,5.2962307e-24,5.652551e-27,1.0066145e-21,5.8832327e-22
0,0,0.6830692291259766,1.0,7.7093314e-14,1.7165814e-34,3.132052e-17,1.1073445e-34
0,0,0.6728172302246094,1.0,3.9341224e-08,3.6838165e-19,4.7639254e-14,1.977071e-25
0,0,0.6699562072753906,0.9999995,4.6343654e-17,4.6968944e-07,1.2237525e-17,3.514692e-26
0,0,0.6690025329589844,1.0,3.1695037e-17,3.152694e-17,3.8432505e-28,0.0
0,0,0.6685256958007812,1.0,2.551595e-10,4.98075e-13,1.5610156e-28,7.15445e-39
0,0,0.6687641143798828,1.0,2.7305095e-26,2.1493595e-25,3.3043537e-21,2.9783633e-14
0,0,0.6682872772216797,1.0,7.281205e-34,1.9670796e-34,2.76671e-29,6.449368e-17
0,0,0.6697177886962891,1.0,3.5707946e-13,8.5147547e-14,1.5455321e-29,6.0304776e-36
0,0,0.6678104400634766,0.985707,0.014292974,8.352667e-25,8.248872e-17,1.7467786e-24
0,0,0.6697177886962891,1.0,2.5165765e-11,9.408203e-13,3.1468175e-10,2.7758835e-23
0,0,0.6685256958007812,1.0,5.5533627e-18,1.5231241e-18,2.1688543e-18,7.56679e-40
0,0,0.67138671875,1.0,3.031193e-21,2.8359375e-25,1.3376159e-17,2.0655005e-22
0,0,0.7040500640869141,1.0,3.4819823e-09,2.1977125e-33,1.0737034e-30,3.0519e-41
0,0,0.6730556488037109,1.0,4.5795464e-13,4.873532e-18,2.2980528e-22,4e-44
0,1,0.6706714630126953,0.28745478,0.7125452,1.9214519e-15,1.0631667e-11,2.285738e-28
0,0,0.6694793701171875,0.9999999,7.143804e-08,1.1059339e-20,8.4496584e-20,3.398099e-24
0,0,0.6697177886962891,1.0,1.9243357e-12,2.9211676e-15,5.3934506e-21,6.694e-42
0,0,0.6678104400634766,0.9839229,2.3701785e-08,0.0,0.01607705,0.0
0,0,0.6699562072753906,1.0,5.6197713e-09,1.2940007e-10,5.291481e-18,3.1992237e-27
0,0,0.6694793701171875,1.0,1.4459946e-15,1.6457677e-23,2.8042557e-10,2.8568532e-30
0,0,0.667572021484375,1.0,2.102249e-15,5.7882103e-19,2.2838643e-26,0.0
0,0,0.6699562072753906,1.0,1.0537995e-12,5.3108096e-27,2.4756486e-10,9.1e-44
2,0,0.6711483001708984,0.99999726,1.2055153e-13,2.2431082e-15,2.7329368e-06,2.179957e-12
0,0,0.6721019744873047,0.9999325,6.751881e-05,7.940204e-11,1.2834166e-20,1.7174621e-25
2,2,0.6692409515380859,1.6093236e-17,4.8594503e-22,1.0,1.903359e-14,1.4711561e-35
0,0,0.6692409515380859,0.9999809,1.90498e-05,1.1698191e-30,7.317891e-15,7.9454005e-31
0,0,0.6971359252929688,0.9999956,4.4489852e-06,1.0652753e-20,2.2339104e-09,1.9577445e-25
0,0,0.6694793701171875,1.0,7.858824e-17,1.6118905e-11,2.2431966e-33,2.1e-44
0,0,0.6690025329589844,1.0,2.4543658e-09,4.317253e-16,8.2453325e-20,1.0067941e-15
0,0,0.6687641143798828,1.0,7.913149e-18,0.0,3.484935e-34,0.0
0,0,0.6678104400634766,1.0,3.3580248e-31,0.0,1.883397e-20,2.1693896e-35
0,0,0.6687641143798828,1.0,5.81144e-08,1.8250163e-12,1.0399578e-24,1.3305293e-28
0,0,0.6690025329589844,1.0,8.0637885e-11,1.5366023e-14,1.3665304e-15,7.661259e-12
0,0,0.6682872772216797,1.0,1.8710887e-26,2.3626434e-27,1.1369583e-16,6.3861776e-18
0,0,0.6697177886962891,1.0,6.2433264e-10,5.828745e-16,4.8734687e-21,7.5114507e-25
0,0,0.782012939453125,0.9999522,4.7841062e-05,2.6896602e-25,6.27562e-14,6.372482e-35
2,2,0.8203983306884766,2.920447e-20,5.4451425e-25,1.0,3.1370152e-24,4.75592e-40
0,0,0.7865428924560547,0.9999999,1.5782855e-07,4.615883e-22,1.2966483e-19,1.1588652e-31
0,0,0.6928443908691406,1.0,1.5257456e-27,0.0,3.2468226e-31,0.0
0,0,0.7207393646240234,0.9999999,1.0581e-07,5.718318e-12,1.0968806e-26,5.4066385e-34
0,0,0.6721019744873047,0.9999999,9.058681e-08,3.454584e-19,3.1718441e-09,5.824974e-28
0,0,0.6728172302246094,1.0,4.219198e-09,3.44122e-35,7.373214e-20,0.0
0,0,0.6704330444335938,1.0,9.823433e-12,1.681332e-27,2.6499575e-17,2.0381327e-34
0,0,0.6692409515380859,1.0,1.0402681e-11,8.917318e-24,2.384703e-25,0.0
0,0,0.6687641143798828,1.0,7.153684e-17,5.6197504e-24,1.4288192e-14,2.9729442e-32
1,1,0.6709098815917969,0.00025299494,0.999747,6.695279e-18,3.137096e-12,2.4783427e-14
0,0,0.6697177886962891,1.0,1.4191598e-08,2.6330847e-13,5.439668e-15,1.4867559e-27
0,0,0.6682872772216797,0.99999785,2.2008333e-06,7.494498e-31,4.1027136e-32,7.301e-42
0,0,0.6687641143798828,0.9999957,4.296678e-06,8.248036e-27,2.573646e-15,1.9953704e-30
0,0,0.6692409515380859,1.0,4.1319182e-14,1.8298852e-20,1.1575736e-19,2.144872e-24
0,0,0.6690025329589844,1.0,1.3885254e-17,0.0,0.0,0.0
0,0,0.6685256958007812,1.0,4.127374e-10,3.339461e-25,2.364033e-26,1.282e-42
0,0,0.6988048553466797,1.0,9.905226e-26,2.3824094e-27,2.92859e-36,0.0
0,0,0.6709098815917969,1.0,1.9172903e-12,1.8351062e-21,2.3124901e-24,4.655135e-39
0,0,0.6711483001708984,0.9999989,1.1232496e-06,0.0,3.1898732e-35,0.0
0,0,0.6685256958007812,1.0,2.3303545e-10,1.1395147e-33,2.2392062e-16,7.4146284e-25
0,0,0.6697177886962891,1.0,4.0542023e-22,2.8003341e-24,9.424625e-27,6.942546e-21
0,0,0.6697177886962891,1.0,1.1022814e-22,8.556157e-25,3.898537e-19,5.554002e-24
0,0,0.6685256958007812,0.99996555,8.788428e-10,3.4468125e-05,8.203148e-13,4.280494e-20
0,0,0.6678104400634766,1.0,4.597481e-31,0.0,4.677569e-37,0.0
0,0,0.6682872772216797,1.0,2.0434876e-13,6.3089195e-12,3.1179272e-16,5.2771693e-25
0,0,0.6694793701171875,1.0,1.171912e-18,0.0,0.0,0.0
2,2,0.6687641143798828,3.0146255e-34,0.0,1.0,0.0,0.0
0,0,0.6682872772216797,1.0,1.3972707e-18,4.66574e-20,1.1269855e-20,1.232e-42
0,0,0.6716251373291016,1.0,2.6933628e-13,1.0649026e-19,2.9005119e-13,1.7788959e-22
0,0,0.6697177886962891,1.0,6.509263e-15,0.0,8.970925e-38,0.0
0,0,0.6961822509765625,0.9999989,1.0338943e-06,4.528357e-16,4.5038517e-12,5.946264e-23
0,0,0.6692409515380859,1.0,1.1461034e-15,4.266934e-11,1.0365632e-17,9.541606e-21
0,0,0.6690025329589844,0.9999999,3.176029e-08,6.209545e-08,2.1887994e-20,1.5784998e-21
0,0,0.67138671875,1.0,1.6726958e-08,6.8055833e-31,4.484241e-21,0.0
0,0,0.6699562072753906,0.9739199,0.026080081,7.764506e-11,1.3616673e-16,2.3929551e-17
0,0,0.6685256958007812,1.0,0.0,0.0,1.5519517e-32,1.6807939e-26
0,0,0.6685256958007812,0.9999937,6.2682375e-06,9.2451034e-26,2.5069306e-19,9.835795e-28
0,0,0.6697177886962891,1.0,1.6739993e-33,0.0,1.6002724e-36,0.0
2,2,0.6687641143798828,2.4447122e-25,2.272185e-26,1.0,1.6040544e-30,0.0
0,0,0.6690025329589844,0.9999989,1.0175935e-06,7.37486e-14,6.43306e-09,3.9077093e-24
0,0,0.6682872772216797,0.99998224,1.77872e-05,2.8613683e-18,3.1641456e-16,1.1948826e-31
0,0,0.6699562072753906,1.0,1.009583e-14,1.3814957e-21,6.888664e-25,0.0
0,0,0.6692409515380859,0.9664463,5.4772596e-21,2.7079045e-06,0.033550955,6.255534e-14
0,0,0.6711483001708984,0.9999999,9.236625e-08,3.6808126e-33,1.04494416e-13,5.722005e-31
0,0,0.7002353668212891,1.0,1.0360994e-12,0.0,0.0,0.0
3,3,0.6692409515380859,6.1713954e-12,9.1768586e-14,1.1342696e-21,1.0,1.7052322e-33
0,0,0.6699562072753906,1.0,1.5959816e-12,6.1878576e-17,6.4858237e-20,1.42937e-40
0,0,0.6690025329589844,1.0,3.5074625e-18,0.0,6.478904e-34,4.5652583e-29
0,0,0.6682872772216797,0.999997,2.0786793e-14,9.638593e-37,2.976402e-06,6.4131034e-35
0,0,0.6680488586425781,1.0,5.6910264e-17,3.390656e-08,1.9610366e-23,5.4940443e-34
0,0,0.6670951843261719,0.9999994,6.458679e-07,4.9839873e-32,1.22403435e-14,0.0
0,0,0.6706714630126953,0.99980134,0.00019873564,1.5642441e-15,2.1692305e-10,3.8197946e-33
0,0,0.6687641143798828,1.0,2.64126e-08,2.8311577e-34,3.2763353e-23,0.0
0,0,0.6680488586425781,0.99999857,1.4072614e-06,7.0105716e-18,1.727039e-11,1.3782862e-31
0,0,0.6694793701171875,1.0,1.0659296e-10,6.702492e-11,4.3253266e-33,0.0
0,0,0.6792545318603516,1.0,2.8586934e-13,1.1737267e-36,3.6723704e-25,7.5097394e-23
0,0,0.6699562072753906,1.0,1.0948813e-13,9.996434e-20,2.8439339e-24,0.0
0,0,0.6692409515380859,0.9999995,5.2700136e-07,7.538625e-27,6.098065e-15,7.0628184e-24
2,2,0.7016658782958984,1.05014105e-36,0.0,1.0,1.05847686e-16,0.0
0,0,0.67138671875,1.0,1.8284684e-09,0.0,9.7844535e-33,6.105383e-28
0,0,0.6694793701171875,0.9999999,1.3497704e-07,4.3808957e-22,6.7868916e-23,1.5497789e-26
0,0,0.6685256958007812,1.0,3.0361207e-11,0.0,8.1466706e-25,4.970553e-37
0,0,0.6697177886962891,1.0,8.549086e-23,0.0,2.6306959e-20,0.0
2,2,0.6687641143798828,5.5242737e-16,5.231931e-17,1.0,7.361695e-19,1.3289801e-16
0,0,0.6680488586425781,1.0,2.6892718e-28,0.0,8.203876e-30,4.303e-42
0,0,0.6697177886962891,1.0,1.7752566e-21,1.43170875e-36,4.071596e-20,5.32362e-40
