label,pred,exec_time_ms,pred_0,pred_1,pred_2,pred_3,pred_4
0,0,1.5838146209716797,0.99999285,7.154819e-06,2.0970391e-12,1.7158584e-08,3.3815826e-12
0,0,0.7445812225341797,0.9995784,0.00010350575,2.30167e-08,0.0003177232,3.4513906e-07
1,0,0.7429122924804688,0.73615426,0.2637659,1.3929249e-05,5.900865e-05,6.8725135e-06
0,0,0.7243156433105469,0.9997516,0.00019009259,3.532971e-07,5.727342e-05,6.433506e-07
2,2,0.7345676422119141,2.1898483e-10,3.442717e-14,0.9999628,3.7179936e-05,2.1569671e-10
2,2,0.759124755859375,3.5576954e-20,2.0940873e-09,1.0,1.0338623e-09,2.714102e-18
0,0,0.8027553558349609,0.9999975,2.4785415e-06,2.4558393e-09,2.6015844e-08,6.038392e-10
0,0,0.78582763671875,0.99996936,3.0068479e-05,1.8419701e-08,5.9388884e-07,1.5543808e-09
0,0,0.8537769317626953,0.99999964,3.6635137e-07,7.4022194e-10,8.51734e-09,8.744945e-11
0,0,0.7529258728027344,0.99999714,2.1059086e-06,1.8424533e-12,7.356707e-07,7.160073e-11
0,0,0.6868839263916016,0.99987376,0.00012607299,3.933393e-08,1.518653e-07,1.1937544e-10
0,0,0.6740093231201172,1.0,5.0975424e-13,2.4983283e-17,3.726381e-11,2.1295891e-13
0,0,0.6740093231201172,0.9999938,1.3462315e-08,1.8751231e-07,5.961383e-06,6.1531717e-09
0,0,0.6728172302246094,0.9999453,4.644402e-05,7.495638e-07,7.4529094e-06,6.296265e-08
0,0,0.7340908050537109,0.99994695,1.1106235e-06,6.885247e-11,5.1936953e-05,1.2863617e-08
3,3,0.6775856018066406,3.732648e-06,1.2404478e-06,3.1099662e-05,0.99989545,6.8492016e-05
0,0,0.6742477416992188,0.9999349,6.454575e-05,7.769899e-10,5.621764e-07,5.3184457e-10
0,0,0.6792545318603516,0.9999831,1.6959704e-05,2.0407343e-13,1.9841645e-08,3.5819568e-12
2,2,0.6775856018066406,4.4614535e-05,0.0008991326,0.99904245,1.37719535e-05,1.38895e-11
1,1,0.6768703460693359,0.009176,0.98931307,0.0011861322,0.00032484822,6.5362653e-09
0,0,0.6742477416992188,0.99999666,9.800419e-08,2.8830032e-06,3.38691e-07,4.035568e-09
0,0,0.6797313690185547,0.9994331,0.00026429846,0.00019472561,0.00010257659,5.3449667e-06
0,0,0.6978511810302734,1.0,5.492603e-10,2.9484412e-10,1.3086773e-10,9.544916e-14
2,2,0.6778240203857422,3.2971909e-10,1.342719e-13,0.9332826,0.0665983,0.00011918949
0,0,0.675201416015625,0.9999945,5.262266e-06,1.0212352e-09,2.2429313e-07,6.361417e-10
0,2,0.6740093231201172,0.00023266654,2.9087005e-08,0.99809784,0.0016683944,1.2139129e-06
0,0,0.6797313690185547,0.99995315,2.6868645e-05,1.9611345e-05,2.6828113e-07,8.477717e-10
0,0,0.7166862487792969,0.99993837,5.9377646e-05,6.977053e-07,1.5561312e-06,6.822498e-09
0,0,0.6783008575439453,0.9999976,2.6001759e-08,1.5820998e-08,2.2494858e-06,9.696749e-08
0,0,0.6797313690185547,0.9999993,7.6215713e-07,2.1825005e-15,3.1467132e-10,3.6643395e-15
0,0,0.6754398345947266,0.9999888,3.4034423e-07,5.8394357e-06,3.0557014e-06,2.0749274e-06
0,0,0.6725788116455078,0.99997675,2.2762857e-05,1.5459982e-07,3.4032e-07,8.16157e-09
0,0,0.6749629974365234,0.9997633,0.0002236658,7.842831e-09,1.273353e-05,2.2284702e-07
0,0,0.6735324859619141,0.999998,1.4623346e-06,2.9693886e-11,5.073903e-07,1.9760303e-10
0,0,0.6725788116455078,1.0,2.1265502e-12,6.2194474e-18,1.159484e-13,1.2471673e-15
0,0,0.6721019744873047,0.9999999,6.59333e-08,5.214745e-13,2.5614177e-08,1.4392174e-11
0,0,0.6716251373291016,0.99997246,2.2697673e-06,1.2187037e-07,2.5056714e-05,6.280712e-08
0,0,0.6768703460693359,0.99999547,2.5279298e-06,2.6576207e-12,1.9947588e-06,1.8787875e-10
0,0,0.6742477416992188,0.9999758,1.4781551e-05,3.2861925e-07,7.369868e-06,1.6158477e-06
0,0,0.6749629974365234,0.98526174,0.00024202015,0.014477741,1.7347222e-05,1.2287825e-06
0,0,0.6771087646484375,0.9999981,1.5700132e-06,1.6872744e-09,2.8687194e-07,3.3677072e-10
0,0,0.705718994140625,1.0,1.3518124e-09,1.8657686e-14,6.633091e-11,1.4528714e-13
2,2,0.6749629974365234,5.5371384e-08,2.6044004e-06,0.9999969,1.9460805e-07,3.4585074e-07
0,0,0.6740093231201172,0.99997425,2.4238825e-05,5.4751303e-10,1.4801382e-06,1.5153202e-09
0,0,0.6730556488037109,0.9999901,5.8906503e-06,2.143532e-07,3.630748e-06,9.004176e-08
0,0,0.7040500640869141,0.9999999,3.2412397e-09,6.598075e-11,1.7251337e-07,3.0573643e-12
0,0,0.7379055023193359,1.0,2.1589678e-08,1.2998083e-11,6.525614e-10,1.3470828e-11
0,0,0.7603168487548828,0.9982791,0.0016699822,9.912577e-07,4.982689e-05,6.32088e-08
0,0,0.9875297546386719,0.9999796,2.0328065e-05,1.2726989e-10,7.571257e-08,1.7852163e-10
0,0,1.0402202606201172,0.9999976,2.3273467e-06,6.0510146e-11,6.536816e-08,2.1912572e-10
0,0,0.9100437164306641,0.99999917,8.6868414e-07,1.9897082e-14,1.82502e-10,1.0107724e-11
0,0,0.7908344268798828,0.9994684,0.0005182355,4.023691e-10,1.3424397e-05,9.717268e-09
0,0,0.8387565612792969,0.9999851,8.891493e-06,9.582485e-09,5.908619e-06,7.2994204e-08
0,0,0.8089542388916016,0.99996305,3.6360227e-05,5.4444477e-08,6.185347e-07,9.367569e-09
0,0,0.8687973022460938,0.9999751,7.538082e-08,2.2970642e-05,1.8870418e-06,1.0398192e-08
0,0,0.9205341339111328,0.9999771,4.0310657e-09,5.048354e-08,2.252777e-05,3.9343192e-07
0,0,0.8466243743896484,0.9999739,2.610414e-05,7.513035e-13,5.3495572e-08,2.4020407e-11
0,0,0.9214878082275391,1.0,2.0687246e-08,2.2096914e-18,2.5597902e-13,2.6322883e-15
0,0,0.9005069732666016,1.0,1.6684665e-09,2.29354e-09,4.328009e-10,1.2003412e-11
0,0,0.9033679962158203,0.99999774,9.0101715e-08,1.7130301e-06,4.779791e-07,1.6888675e-09
0,3,1.065969467163086,0.021558838,0.024298973,2.1031163e-07,0.9541359,5.989121e-06
0,0,0.949859619140625,0.99989295,9.406095e-05,1.5870324e-08,1.3018315e-05,3.7622435e-08
2,2,0.751495361328125,1.682798e-31,6.217983e-16,1.0,7.397896e-12,1.4110593e-16
0,0,0.6971359252929688,0.9999478,4.987002e-05,5.384013e-09,2.3798532e-06,1.1519692e-08
0,0,0.6806850433349609,0.9999939,1.11148566e-07,9.1752765e-11,5.934638e-06,7.520867e-10
0,0,0.6744861602783203,0.99993455,6.153524e-05,2.4202511e-06,1.5051216e-06,7.543424e-09
0,0,0.6716251373291016,0.99999917,9.775603e-14,8.5760945e-07,1.7988262e-08,5.482035e-11
0,0,0.67138671875,0.9999684,2.2752141e-05,1.0056216e-09,8.879194e-06,2.0858295e-09
1,0,0.6728172302246094,0.5400939,0.4599056,6.396159e-12,5.488581e-07,1.7859718e-10
0,0,0.6728172302246094,0.99999976,3.1821045e-08,6.2097414e-13,1.766261e-07,1.386116e-11
0,0,0.6725788116455078,1.0,3.858355e-11,1.2345352e-28,7.436297e-18,1.761925e-21
0,0,0.6763935089111328,1.0,1.655976e-08,3.869509e-09,1.6090107e-09,1.7623483e-10
0,0,0.7379055023193359,0.99784017,0.0014682953,0.0001050309,0.0005543802,3.2148204e-05
0,0,0.6763935089111328,0.9999999,1.7643613e-08,2.2963642e-08,6.623467e-08,6.211505e-10
0,0,0.6740093231201172,0.9999951,1.9942104e-10,1.9779808e-11,4.9183654e-06,1.2179107e-11
0,0,0.6756782531738281,0.99991536,8.3784056e-05,4.636177e-13,8.6211395e-07,1.6641111e-09
0,0,0.6747245788574219,0.9391621,0.028492885,0.0005671201,0.031709403,6.8366746e-05
1,0,0.6766319274902344,0.9996213,9.648578e-05,0.0002536233,2.4021174e-05,4.5979805e-06
0,0,0.6740093231201172,0.99984837,0.00015153919,6.3193066e-12,3.135859e-08,2.1575297e-11
0,0,0.6732940673828125,0.9999969,2.70632e-06,1.1271517e-09,2.6995602e-07,8.181299e-08
0,0,0.6711483001708984,0.9999988,2.535529e-10,3.8368462e-08,1.1815282e-06,4.1920376e-10
0,0,0.6735324859619141,0.9999995,7.190477e-10,7.8156884e-11,4.577309e-07,1.833525e-12
1,1,0.6766319274902344,0.00013345697,0.9997993,9.834079e-06,5.743483e-05,5.0762117e-10
0,0,0.6766319274902344,0.9999981,1.7942497e-06,6.118445e-11,7.1502384e-08,3.7187e-10
0,0,0.6761550903320312,0.99999464,5.348541e-06,2.885735e-13,1.6661106e-09,8.808397e-11
0,0,0.6766319274902344,0.999907,8.445103e-05,8.243094e-07,5.8004352e-06,1.8550164e-06
0,0,0.7128715515136719,0.9995247,0.00025378514,1.1074691e-05,0.00020558378,4.8309907e-06
0,0,0.6771087646484375,0.9999418,1.2916189e-06,1.1656787e-07,5.6758465e-05,8.518959e-09
0,0,0.6725788116455078,0.9999999,3.3019538e-09,9.570238e-10,1.431115e-07,1.0868265e-10
0,0,0.6737709045410156,0.9999685,2.19793e-05,2.2987772e-06,7.176547e-06,9.165065e-09
0,0,0.6735324859619141,0.99999976,6.196222e-12,4.2915168e-11,2.1573732e-07,7.222839e-09
0,0,0.6732940673828125,1.0,3.8046313e-09,4.7317503e-14,2.5609112e-11,9.791389e-12
0,0,0.6742477416992188,0.99972683,0.00026308614,4.3859307e-09,1.00238685e-05,1.0270423e-08
0,0,0.67901611328125,1.0,6.602942e-09,4.84482e-10,1.7218932e-08,1.4171302e-13
0,0,0.6792545318603516,1.0,3.1783517e-11,2.775689e-11,1.2887084e-09,2.096256e-14
0,0,0.6735324859619141,0.9999964,3.564915e-06,1.1246898e-17,5.3104262e-08,6.620765e-12
1,2,0.6728172302246094,2.8671286e-05,0.04156268,0.9582477,0.00016096768,9.683841e-09
0,0,0.6766319274902344,0.99999976,3.4504655e-09,3.963858e-12,2.1221061e-07,3.2223165e-12
0,0,0.6749629974365234,0.9986229,8.459564e-06,0.0004899804,0.00075653277,0.0001221124
0,0,0.7023811340332031,0.99997485,2.5048219e-05,1.540053e-13,9.4694165e-08,1.4898817e-11
2,2,0.6763935089111328,9.703258e-10,6.4757796e-11,0.9999963,3.7154614e-06,4.000459e-09
0,0,0.6737709045410156,1.0,4.2008175e-09,4.46408e-23,1.8188383e-15,3.618732e-18
0,0,0.6730556488037109,0.9999956,2.8550564e-06,3.361559e-09,1.5430749e-06,5.0238413e-10
0,0,0.6728172302246094,0.99985695,2.1564538e-15,0.00014252363,4.26442e-07,6.3650654e-11
0,0,0.6778240203857422,0.99767774,0.0022999463,1.2880604e-08,2.211049e-05,2.2035925e-07
0,0,0.6775856018066406,0.9999995,5.356339e-07,1.5182433e-20,6.1818335e-11,5.844664e-15
0,0,0.6759166717529297,0.9999999,2.1686467e-11,4.134222e-13,8.761791e-08,9.865989e-14
2,2,0.6735324859619141,5.0654775e-10,1.0027297e-14,0.99999785,2.1719718e-06,1.2362579e-08
0,0,0.6771087646484375,0.9999825,1.6683627e-05,5.426234e-12,8.541784e-07,2.7245373e-10
0,0,0.6742477416992188,0.9999999,7.5443964e-08,7.476326e-23,9.749146e-15,6.3980518e-18
0,0,0.6725788116455078,0.9999987,6.160463e-08,9.854305e-09,1.2975805e-06,1.6534488e-08
0,0,0.6737709045410156,0.9996778,0.0003012487,2.277546e-07,1.896931e-05,1.8081015e-06
0,0,0.6716251373291016,0.9998964,7.915913e-05,7.150057e-06,1.6991371e-05,2.3615392e-07
0,0,0.7026195526123047,0.999962,3.3953694e-07,1.3363866e-10,3.766171e-05,7.6015017e-10
0,0,0.6728172302246094,0.9999974,1.703374e-06,4.384109e-08,6.9097297e-07,2.2143746e-07
0,0,0.6773471832275391,0.99999356,2.6477649e-06,1.749247e-13,3.82823e-06,3.7382397e-10
0,0,0.6763935089111328,0.9999076,6.323109e-05,3.3285744e-08,2.8793791e-05,3.0620095e-07
0,0,0.6766319274902344,0.99999905,1.7978003e-08,6.8067556e-09,9.87639e-07,2.8694909e-09
0,0,0.6725788116455078,0.99991405,1.6089123e-09,4.852885e-10,8.576584e-05,7.450857e-08
0,0,0.6771087646484375,0.99999905,7.142221e-07,3.2211532e-12,2.8810598e-07,3.0162563e-11
0,0,0.6737709045410156,1.0,2.7614513e-08,6.1601013e-21,5.844938e-14,1.6706879e-18
0,0,0.6723403930664062,0.9995925,0.00036174417,8.887197e-06,3.6130197e-05,6.648612e-07
0,0,0.6735324859619141,0.9999697,1.146929e-06,1.1591462e-07,2.8447701e-05,5.4873874e-07
0,0,0.6732940673828125,1.0,1.6734956e-13,9.352717e-10,3.187321e-13,5.7724276e-17
0,0,0.6711483001708984,1.0,5.248959e-11,9.433413e-17,1.1781505e-12,3.3631668e-15
0,0,0.6718635559082031,0.9999995,3.955353e-08,1.492213e-08,4.5098312e-07,1.6606998e-09
0,0,0.6756782531738281,1.0,3.443591e-08,1.0176711e-12,2.5985433e-10,2.4044401e-12
0,0,0.7047653198242188,0.9998795,9.13816e-06,4.819285e-08,0.0001114251,3.4195494e-08
0,0,0.6768703460693359,0.9999999,7.8115896e-08,2.8369443e-13,1.07386766e-10,1.0382787e-13
0,0,0.6735324859619141,0.9999994,3.054072e-07,1.9230062e-12,2.4142517e-07,4.947367e-11
0,0,0.6775856018066406,0.9999107,8.4512736e-05,1.3028244e-11,4.8164534e-06,6.235462e-10
0,0,0.6742477416992188,0.9999969,2.0389883e-13,3.0665192e-06,3.664281e-08,1.00864636e-10
0,0,0.6735324859619141,1.0,1.4922136e-08,1.3862202e-10,1.2926497e-09,5.428717e-17
0,0,0.6723403930664062,0.9999993,4.5108195e-07,5.7195477e-12,3.0358004e-07,4.297666e-11
0,0,0.6716251373291016,0.99986756,0.00011097477,9.2774e-09,2.1464788e-05,2.0194062e-08
0,0,0.6723403930664062,0.9998878,2.4591276e-05,8.087575e-05,5.5503483e-06,1.0260436e-06
0,0,0.6749629974365234,0.9999609,9.9388035e-06,6.29071e-08,2.8953858e-05,1.264173e-07
0,0,0.6785392761230469,0.9999887,6.7438873e-07,2.3418396e-08,1.0683688e-05,2.8844374e-08
0,0,0.6766319274902344,0.99999845,1.2673078e-08,9.988421e-07,4.26515e-07,1.1634334e-07
0,0,0.6768703460693359,0.99996316,1.7825427e-05,2.8645786e-07,1.8551567e-05,2.973922e-07
0,0,0.6973743438720703,0.99875414,7.320998e-05,0.0008705715,0.00030178405,2.5385813e-07
0,0,0.6754398345947266,0.99999976,2.428264e-07,1.3024992e-17,1.23520265e-11,7.587971e-17
0,0,0.6747245788574219,0.9999454,3.735265e-05,2.0723911e-08,1.7217493e-05,2.818992e-08
0,0,0.6737709045410156,0.99999964,2.079532e-08,5.419646e-08,3.641704e-07,3.1340772e-09
0,0,0.675201416015625,0.9999999,4.327623e-09,9.724016e-08,4.153082e-08,1.0166894e-08
0,0,0.6740093231201172,0.99997675,2.2365105e-06,2.4834787e-07,2.0500966e-05,2.8905177e-07
0,0,0.6735324859619141,0.99782133,3.658074e-08,9.943259e-08,0.002178349,7.552956e-08
1,1,0.6742477416992188,6.6439934e-05,0.99976057,3.912457e-05,0.00013389121,6.663724e-10
0,0,0.6766319274902344,0.99886656,0.0011306481,4.936963e-09,2.8354773e-06,3.982092e-09
0,0,0.6778240203857422,0.99992585,6.97205e-05,3.001816e-10,4.393183e-06,8.872242e-09
0,0,0.6792545318603516,0.9999937,6.34463e-06,1.0018791e-13,2.3469044e-08,2.8123783e-11
0,0,0.6761550903320312,0.9999995,5.9381073e-08,9.76358e-12,3.8363828e-07,3.520509e-11
0,0,0.6735324859619141,0.99946755,0.00053209264,2.5990554e-08,3.4906222e-07,4.946365e-12
0,0,0.6802082061767578,0.99998987,1.8211026e-07,6.1373244e-09,9.946582e-06,4.118513e-08
0,0,0.7016658782958984,0.9799084,1.2359706e-08,1.0702486e-06,0.020089788,7.020923e-07
0,0,0.6742477416992188,0.9994041,0.0005867631,6.339474e-06,2.8089694e-06,1.2586668e-09
0,0,0.6728172302246094,0.9999974,6.80135e-19,2.6300804e-06,7.105501e-09,6.9578674e-13
0,0,0.6730556488037109,0.9990202,1.4301073e-05,0.0009647242,7.4184106e-07,2.8896118e-13
0,0,0.6768703460693359,0.999846,0.00013087144,4.7116614e-06,1.7625167e-05,6.590954e-07
0,0,0.6747245788574219,0.99952424,0.00037475635,7.413707e-05,2.6653606e-05,2.6904596e-07
0,0,0.6759166717529297,0.9999683,2.7334741e-05,9.137311e-07,2.9331784e-06,4.1722654e-07
0,0,0.6787776947021484,0.99997866,2.0405856e-05,5.955442e-11,9.703583e-07,9.322348e-10
0,0,0.6744861602783203,0.99999547,2.3810394e-07,1.9416068e-12,4.2667743e-06,4.289716e-10
0,0,0.6768703460693359,0.9999895,9.890355e-06,2.4886197e-07,3.8331774e-07,1.3320322e-08
0,0,0.6740093231201172,0.91937566,0.010981727,3.611735e-06,0.06891678,0.00072221033
0,0,0.6735324859619141,0.99999726,2.0267205e-06,1.0610104e-09,7.3720605e-07,1.5371676e-09
0,0,0.6735324859619141,0.99063057,0.009197627,1.4171943e-05,0.00015744651,2.4492127e-07
0,0,0.6728172302246094,0.99991703,5.7471785e-05,1.6110991e-05,9.267201e-06,7.8404206e-08
0,0,0.7035732269287109,1.0,1.2295727e-12,2.4342915e-12,3.7014571e-09,2.3448222e-14
0,0,0.6811618804931641,0.9998171,0.00014874544,1.2779204e-05,2.0350983e-05,1.1003178e-06
0,0,0.6742477416992188,0.99937576,0.0006238904,3.764056e-09,3.3081648e-07,1.2415854e-09
0,0,0.67901611328125,0.99907696,6.713907e-06,0.00086838857,4.46314e-05,3.3852623e-06
0,0,0.6797313690185547,1.0,2.7241187e-13,1.937469e-27,1.5786351e-18,1.7928e-22
0,0,0.6735324859619141,0.9999912,8.725808e-06,2.770826e-10,1.2779893e-07,5.7843885e-10
2,2,0.6740093231201172,2.341359e-10,1.4561209e-12,1.0,7.57361e-11,1.240999e-13
0,0,0.6761550903320312,0.9999871,3.520812e-07,1.5516285e-07,1.2397981e-05,1.9252177e-08
0,0,0.6730556488037109,0.9999976,8.7175175e-07,3.5380537e-10,1.5525442e-06,2.149514e-10
0,0,0.6732940673828125,0.9999988,1.1558236e-06,1.12281495e-13,1.066625e-08,1.25584525e-11
0,0,0.6749629974365234,0.99999845,1.5296436e-06,2.7482384e-11,6.4577954e-08,3.561109e-10
0,0,0.6732940673828125,0.99997175,2.827676e-05,9.286692e-12,1.9304279e-08,1.3433135e-12
0,0,0.6759166717529297,0.9999999,1.8169157e-09,3.4296108e-11,1.5556758e-07,6.862152e-12
0,0,0.7030963897705078,0.9999589,3.0032712e-05,1.1679501e-06,9.501106e-06,3.4078255e-07
2,2,0.6771087646484375,5.613437e-29,3.201812e-12,1.0,1.272953e-10,4.6771714e-16
0,0,0.6771087646484375,1.0,1.0298454e-09,4.8715136e-11,1.2008354e-08,4.789424e-11
0,0,0.675201416015625,0.9999943,5.724759e-06,1.9581817e-11,7.7591675e-09,7.877873e-12
0,0,0.675201416015625,0.99998844,8.739696e-07,1.0999109e-09,1.0667487e-05,3.80302e-09
0,0,0.6747245788574219,0.99997437,1.2890614e-05,3.4914464e-07,1.229821e-05,1.4672135e-07
0,0,0.6728172302246094,1.0,6.174966e-11,6.520011e-19,8.656439e-13,1.4184863e-15
0,0,0.6718635559082031,0.999997,2.9665346e-06,3.2146683e-14,4.4288367e-08,1.4229806e-11
0,0,0.6737709045410156,0.99999964,3.450184e-08,6.012707e-10,3.758781e-07,1.523083e-10
0,0,0.6721019744873047,0.9999993,1.6344514e-12,6.7399213e-07,6.4384023e-09,2.2982873e-11
1,1,0.6735324859619141,0.10185836,0.89814156,1.8902171e-12,1.3867101e-07,7.431483e-12
0,0,0.6723403930664062,0.99999285,1.0850782e-06,3.0902436e-07,5.7024045e-06,4.176532e-09
0,0,0.675201416015625,0.9999962,3.7937166e-06,1.2555838e-14,1.08633245e-08,1.8082458e-12
0,0,0.6792545318603516,0.9981139,0.0018674965,3.0153444e-08,1.859181e-05,3.211941e-09
0,0,0.7038116455078125,0.9988493,1.4157347e-05,3.7033595e-05,0.001089277,1.029529e-05
0,0,0.6763935089111328,0.99999774,1.4032165e-07,8.492122e-11,2.1783978e-06,4.4396523e-10
0,0,0.6763935089111328,0.9999995,8.8035734e-10,1.5129673e-09,4.708775e-07,1.8315031e-10
0,0,0.6740093231201172,0.99989116,0.00010872694,7.7526247e-10,1.0824693e-07,1.0341318e-10
2,2,0.6730556488037109,1.5330226e-17,6.233016e-16,1.0,5.602059e-13,6.070919e-20
0,0,0.6747245788574219,0.99998677,8.73786e-08,1.301719e-05,1.0096155e-07,1.57731e-08
0,0,0.6730556488037109,0.9998933,9.582895e-05,1.815025e-09,1.08973145e-05,1.9743638e-08
0,0,0.6775856018066406,0.99999976,5.29637e-09,9.89172e-08,1.4323903e-07,3.8967345e-09
0,0,0.6749629974365234,0.99999976,2.80016e-07,2.6630816e-16,1.3080083e-10,2.0902796e-13
0,0,0.6773471832275391,0.99996924,2.59031e-05,5.188954e-07,4.285364e-06,9.745962e-08
0,0,0.675201416015625,0.99996305,3.759622e-09,3.6986035e-05,5.2959866e-08,2.0463684e-09
0,0,0.6754398345947266,0.99999833,4.35856e-07,8.096551e-12,1.2043233e-06,2.9819966e-10
0,0,0.6735324859619141,0.99999976,1.5982256e-07,2.6021832e-10,2.789417e-08,3.6045758e-10
2,2,0.6740093231201172,3.338282e-05,9.65462e-05,0.9997713,9.8833654e-05,6.701809e-09
0,0,0.7009506225585938,0.9999995,1.0701694e-08,1.5215346e-11,4.964336e-07,2.3465965e-11
1,1,0.6742477416992188,0.010093814,0.9899059,1.3239645e-10,3.7067093e-07,6.168002e-09
0,0,0.67138671875,0.99988747,8.44344e-05,1.2469768e-06,2.6527727e-05,3.5928858e-07
0,0,0.6732940673828125,0.99999833,1.6590175e-08,3.3739527e-09,1.6233369e-06,8.565497e-10
0,0,0.6771087646484375,0.9997793,0.00022057016,8.406532e-13,1.5588444e-07,2.1149321e-10
0,0,0.6763935089111328,0.99998546,7.85437e-06,7.2801384e-08,6.5010586e-06,6.531701e-08
0,0,0.6759166717529297,0.9998939,0.00010568117,2.6466323e-12,4.163684e-07,5.1738475e-11
2,2,0.6773471832275391,1.7788894e-06,1.3148606e-10,0.9995678,0.00043031582,1.4241155e-07
0,0,0.6768703460693359,0.9999999,2.6196906e-08,3.2356955e-15,9.865869e-08,1.5650174e-11
0,0,0.6735324859619141,0.9999932,5.5991427e-07,2.456869e-09,6.2821723e-06,2.440862e-09
0,0,0.675201416015625,0.9999995,4.561347e-07,2.4739432e-14,4.369898e-09,3.840773e-12
0,0,0.6737709045410156,0.9999913,3.4815257e-06,1.6638846e-06,3.5011267e-06,5.251702e-09
0,0,0.6725788116455078,0.99982136,1.2900421e-09,1.6899906e-09,0.00017855625,1.12835075e-07
2,2,0.6732940673828125,1.2574797e-07,1.7046968e-08,0.99998605,1.3669458e-05,7.609715e-08
2,2,0.6747245788574219,4.9441077e-18,5.303584e-11,1.0,7.0961576e-10,1.0172507e-18
0,0,0.6792545318603516,0.8383615,0.16163747,8.397384e-11,1.0923715e-06,3.0665324e-09
1,0,0.6759166717529297,0.7890157,0.17946331,0.030809622,0.00070843793,2.877077e-06
0,0,0.6759166717529297,0.9997594,5.181508e-10,3.8939927e-09,0.00024047885,1.5911112e-07
0,0,0.6799697875976562,0.99976665,0.00020457104,1.4291946e-06,2.497234e-05,2.4394774e-06
0,0,0.6763935089111328,0.999998,8.8218195e-07,9.59293e-15,1.1770331e-06,1.0143001e-10
0,0,0.6737709045410156,0.9999995,4.859429e-07,2.9376997e-11,6.2853487e-09,4.450236e-12
0,0,0.6744861602783203,0.99999774,3.8355563e-07,2.4832798e-07,1.5921776e-06,9.490878e-12
0,0,0.6709098815917969,1.0,9.766206e-09,4.7637636e-17,1.30195455e-11,4.1644582e-15
0,0,0.6723403930664062,0.9979511,0.0020381103,6.485639e-11,1.0818135e-05,1.1767013e-08
0,0,0.6728172302246094,0.9999542,1.0420238e-05,2.07882e-05,1.46267585e-05,3.1392428e-08
3,3,0.6740093231201172,3.5333564e-05,7.927272e-05,8.873003e-05,0.99976534,3.136285e-05
0,0,0.6754398345947266,0.999894,8.441144e-05,1.984462e-05,1.7147761e-06,1.4544678e-08
0,0,0.7016658782958984,0.9999999,7.180989e-08,9.886022e-16,7.243676e-12,1.6280086e-16
0,0,0.675201416015625,0.99958414,0.00041587537,2.0026863e-13,2.3906116e-08,1.5070381e-12
1,1,0.6780624389648438,0.06729214,0.9326196,2.3681252e-05,6.464436e-05,5.3446403e-10
0,0,0.6771087646484375,0.99998546,7.638657e-06,9.3005985e-07,4.7579365e-06,1.1893911e-06
0,0,0.6749629974365234,0.9999224,1.0072243e-05,9.655521e-10,6.7431196e-05,9.490852e-08
0,0,0.675201416015625,0.999985,9.2148275e-06,3.1059034e-08,5.4390816e-06,3.0681073e-07
0,0,0.6725788116455078,0.9999933,3.7863867e-08,4.0337613e-09,6.5459526e-06,1.2603414e-07
0,0,0.6742477416992188,0.999998,1.1590258e-06,4.7111147e-08,6.1428375e-07,2.6559744e-07
1,1,0.6721019744873047,0.0019571977,0.9941508,0.0024101082,0.001277103,0.00020481415
0,0,0.6737709045410156,0.99999964,5.5896517e-14,3.2441832e-07,1.3714463e-08,3.0733853e-11
0,0,0.6783008575439453,1.0,2.4011326e-11,6.24052e-28,7.9619286e-18,1.8484268e-21
2,2,0.67901611328125,8.977228e-09,6.0575207e-09,0.9999287,7.112173e-05,1.7044358e-07
2,2,0.6749629974365234,9.096239e-09,2.0401176e-12,0.9999894,1.0649141e-05,8.69014e-10
0,0,0.6749629974365234,0.9999975,9.4511944e-07,5.8311336e-08,1.5056055e-06,7.4005096e-10
0,0,0.7033348083496094,1.0,1.9687192e-08,2.228793e-23,1.6212877e-12,5.387477e-17
0,0,0.6747245788574219,1.0,3.9802117e-10,1.1006777e-08,3.7040844e-09,4.5042404e-13
0,0,0.6747245788574219,0.99992657,2.3483128e-07,6.899779e-05,2.9895393e-06,1.2177223e-06
2,2,0.6742477416992188,1.0622671e-12,1.7441822e-23,1.0,4.5712323e-08,4.7634978e-14
0,0,0.6754398345947266,0.99997926,1.1374898e-05,6.598203e-11,9.410787e-06,1.5875228e-09
0,0,0.6716251373291016,0.9999999,6.893493e-08,1.2298271e-10,1.6879092e-08,3.2560177e-09
0,0,0.67138671875,0.99999905,9.4075773e-07,3.2148435e-12,2.650877e-08,8.426995e-11
0,0,0.6773471832275391,0.9999999,2.769215e-08,3.2099662e-10,1.3719078e-07,5.563612e-11
0,0,0.6766319274902344,0.9999919,2.965061e-07,4.636068e-11,7.757474e-06,1.3395098e-09
0,0,0.6744861602783203,0.999997,2.8869522e-06,7.9133564e-13,5.187957e-08,6.6821978e-12
0,0,0.6771087646484375,0.9999347,2.3467894e-05,3.480673e-05,7.035858e-06,2.4295963e-08
2,2,0.6742477416992188,4.620643e-10,7.611795e-09,0.9999927,7.290996e-06,3.315456e-08
0,0,0.6725788116455078,1.0,1.3411902e-09,1.9136087e-11,4.6165056e-08,1.3081917e-12
0,0,0.6730556488037109,0.9999989,1.040345e-06,8.0513616e-15,2.4028182e-09,1.1725759e-12
1,1,0.7021427154541016,0.00038550622,0.9995939,3.056335e-07,2.0252859e-05,1.3919371e-11
0,0,0.6744861602783203,1.0,7.21543e-10,1.047867e-23,3.9182084e-16,4.0596845e-20
0,0,0.6737709045410156,0.99987376,2.7974984e-05,9.339671e-05,4.3773675e-06,4.6493872e-07
0,0,0.6725788116455078,0.999962,3.446261e-05,4.7220934e-07,2.5286793e-06,5.958882e-07
3,3,0.6787776947021484,0.0068831025,2.2441195e-07,0.00021479039,0.99192613,0.0009757885
2,2,0.6759166717529297,3.774849e-07,1.8121741e-14,0.9999871,1.2555996e-05,1.7212396e-09
2,2,0.6735324859619141,4.5418895e-07,3.8924135e-14,0.99999714,2.3953362e-06,1.9219413e-09
0,0,0.6766319274902344,0.9999999,1.2288809e-08,2.7600294e-08,1.3233051e-07,7.6444645e-10
0,0,0.8606910705566406,0.99999774,1.218689e-09,1.9422792e-11,2.2102013e-06,3.6042776e-11
0,0,0.6856918334960938,0.9999621,2.945213e-08,2.7062554e-11,3.7919617e-05,6.705038e-11
0,0,0.6749629974365234,0.99999964,2.6391655e-07,9.332835e-16,5.6706583e-08,2.6607154e-12
2,2,0.6730556488037109,2.0039601e-12,8.202435e-23,1.0,1.0314402e-08,1.8929499e-14
0,0,0.6732940673828125,0.9999999,5.520303e-08,8.33484e-13,6.417236e-08,4.5418752e-11
0,0,0.7021427154541016,0.9998512,0.00013915011,1.595475e-06,8.084306e-06,4.7703498e-08
0,0,0.6754398345947266,0.99999964,3.0101864e-07,1.0227022e-13,1.7385481e-08,3.326056e-12
0,0,0.6773471832275391,0.99999464,1.850512e-10,4.9617342e-06,3.369808e-07,1.4088141e-09
0,0,0.6780624389648438,0.9999988,3.894008e-07,1.8230044e-07,3.1672948e-07,1.8341511e-07
0,0,0.6804466247558594,0.9999901,8.982281e-06,3.3036102e-07,5.5164946e-07,1.9207597e-08
0,0,0.6728172302246094,0.9999962,2.0728066e-06,4.8804747e-09,1.7442801e-06,8.362832e-10
0,0,0.6773471832275391,1.0,3.465088e-09,3.0063016e-10,8.353702e-09,4.3969697e-14
0,0,0.6754398345947266,0.9998988,9.955142e-05,7.945508e-08,1.5426416e-06,9.259481e-09
2,2,0.6761550903320312,5.4906427e-13,8.379436e-09,0.9999802,1.972547e-05,4.213894e-13
2,2,0.675201416015625,2.3015884e-08,7.767405e-13,0.99921703,0.0007816585,1.2711671e-06
0,0,0.6725788116455078,0.99999845,1.5231207e-06,6.6872925e-09,2.7385296e-09,1.6625685e-12
0,0,0.6721019744873047,0.9999908,7.223802e-07,1.4508002e-10,8.423203e-06,7.399712e-10
0,0,0.6740093231201172,1.0,1.9540487e-10,1.9772322e-15,3.4073284e-09,1.9879639e-15
1,1,0.6775856018066406,0.00038216272,0.99255157,0.0035082686,0.0035574867,6.3367116e-07
0,0,0.7088184356689453,1.0,4.9099486e-10,2.244473e-17,5.7974454e-12,3.6936316e-15
0,0,0.6794929504394531,0.9999969,2.8227691e-06,2.5723512e-09,3.1388518e-07,1.976866e-09
0,0,0.6747245788574219,1.0,2.358971e-10,9.237902e-18,7.8494355e-12,3.3279431e-15
0,0,0.6749629974365234,0.99998486,9.342869e-06,2.5661825e-07,4.856136e-06,7.0009463e-07
0,0,0.6763935089111328,0.9999044,9.271976e-05,1.4365653e-11,2.837533e-06,4.3361467e-10
0,0,0.6723403930664062,0.99999464,5.0340436e-06,2.788077e-07,9.015473e-08,1.4110838e-09
0,0,0.6723403930664062,0.9999987,1.2545197e-06,2.6388265e-14,5.0529564e-10,2.4370673e-15
0,0,0.6754398345947266,0.99926645,0.0007271031,2.1038663e-06,4.3282803e-06,2.113429e-09
0,0,0.6735324859619141,0.9999945,5.412702e-06,1.8738621e-13,3.2745987e-08,3.953932e-11
0,0,0.6737709045410156,0.9997477,0.0002359994,8.870979e-06,7.4449513e-06,2.6313424e-08
0,0,0.6744861602783203,0.999987,1.291859e-05,3.2247086e-13,1.2175748e-07,1.717617e-11
3,3,0.6785392761230469,5.1155028e-05,2.0568383e-08,0.0005110247,0.99800473,0.0014331787
2,2,0.6778240203857422,3.3541813e-25,4.779505e-11,1.0,3.6362206e-08,3.1921226e-12
0,0,0.7045269012451172,0.9999665,4.5086226e-06,7.949244e-12,2.9034207e-05,5.608115e-09
2,2,0.6780624389648438,5.0552686e-09,3.3318455e-17,0.99926955,0.0007305037,1.2923836e-12
0,0,0.6761550903320312,0.9999989,1.077931e-06,1.0010138e-12,7.802138e-09,7.448021e-12
0,0,0.6732940673828125,0.99993086,6.2327024e-05,8.940373e-09,5.8306728e-06,9.13757e-07
0,0,0.6730556488037109,0.9999994,4.036977e-07,2.046601e-11,1.8348118e-07,7.275235e-10
0,0,0.6721019744873047,0.9999994,3.025335e-13,6.492478e-07,1.9623823e-08,2.6198002e-11
0,0,0.6735324859619141,0.9998586,2.6348514e-06,0.0001269269,1.1700254e-05,7.784518e-08
0,0,0.6766319274902344,0.9999833,1.0036075e-05,2.0424017e-07,5.826715e-06,6.445131e-07
0,0,0.6759166717529297,0.9999733,1.6349104e-05,1.2729696e-07,8.887438e-06,1.2598998e-06
0,0,0.6761550903320312,0.9999789,7.711354e-08,9.720341e-07,2.0039039e-05,3.881456e-08
0,0,0.6773471832275391,0.99999475,3.967957e-06,9.2231815e-08,1.1067855e-06,2.083762e-08
0,0,0.6744861602783203,1.0,1.8460211e-09,9.21292e-17,4.7577355e-09,4.3656094e-13
0,0,0.6766319274902344,0.99999976,2.9796973e-07,8.783543e-19,6.8268606e-13,4.014372e-15
0,0,0.6737709045410156,0.9999999,1.7620171e-12,1.02273674e-07,1.0694842e-08,2.079331e-11
2,2,0.7028579711914062,1.9032102e-10,9.806884e-12,1.0,3.3091688e-08,2.0798925e-09
0,0,0.6732940673828125,0.9999876,3.4747527e-06,1.9760986e-08,8.759787e-06,9.151078e-08
0,0,0.6728172302246094,0.99999917,2.498654e-10,1.1977304e-08,8.937548e-07,2.6016903e-10
0,0,0.6723403930664062,0.8882468,0.0008504919,0.001726303,0.10111079,0.008065692
0,0,0.6766319274902344,0.9998211,5.514626e-07,3.5475492e-05,0.00013196128,1.0794566e-05
0,0,0.6754398345947266,0.9999976,5.36333e-13,2.400572e-06,5.6911475e-08,1.10241566e-10
0,0,0.6775856018066406,0.99999654,2.2820614e-06,7.898798e-10,1.1480694e-06,4.9227456e-08
0,0,0.6785392761230469,0.9999722,2.7800204e-05,6.7673934e-15,1.4880057e-08,1.429994e-12
0,0,0.6735324859619141,0.99997437,2.0865646e-05,2.059538e-08,4.807339e-06,9.952666e-09
0,0,0.6732940673828125,0.9999263,6.455202e-05,1.0557155e-08,8.942119e-06,7.9989476e-08
0,0,0.6744861602783203,0.9999933,2.9930455e-08,2.3457845e-08,6.606612e-06,3.1345357e-09
0,0,0.6725788116455078,0.99989796,9.604193e-05,3.27666e-06,2.808324e-06,4.810715e-11
0,0,0.6732940673828125,0.99995315,7.462299e-08,4.673216e-05,6.610764e-08,7.324524e-09
0,0,0.6723403930664062,0.9999943,4.1877356e-06,5.8257643e-09,1.4337758e-06,1.337032e-07
0,0,0.7562637329101562,0.99056107,0.008638945,0.0007794528,2.047525e-05,1.2893894e-08
0,0,0.6794929504394531,1.0,4.8790855e-10,4.2770637e-14,3.3343452e-09,7.467752e-10
0,0,0.6732940673828125,0.9999864,1.2669174e-05,2.2628727e-11,8.8788244e-07,8.1010815e-10
0,0,0.6749629974365234,0.99998105,1.8396086e-05,9.70734e-08,3.8569394e-07,4.0480166e-09
0,0,0.6778240203857422,1.0,9.53933e-10,7.1851947e-16,3.62443e-11,2.5869746e-15
0,0,0.675201416015625,0.9999738,2.6180927e-05,1.3648289e-13,2.472453e-08,8.172797e-12
0,0,0.6747245788574219,0.9999968,8.409492e-07,4.7456209e-07,1.2809329e-06,5.3771396e-07
0,0,0.6747245788574219,0.99991405,6.930159e-05,1.9478026e-08,1.6531963e-05,6.367843e-08
0,0,0.6747245788574219,0.999997,1.9563515e-06,5.3357146e-10,9.699737e-07,8.7171326e-10
0,0,0.6725788116455078,0.9999968,3.7670222e-08,1.06847835e-07,3.0553415e-06,3.1445406e-09
0,0,0.6723403930664062,0.9999604,1.37646275e-05,1.9354707e-09,2.5695363e-05,1.0588799e-07
0,0,0.6730556488037109,0.99993336,1.9072779e-05,3.719799e-05,9.380564e-06,9.692396e-07
2,2,0.6768703460693359,4.0863782e-20,9.74109e-13,1.0,1.9921205e-11,5.729489e-19
0,0,0.7011890411376953,0.9999999,1.7598032e-07,7.1351546e-16,1.0599507e-10,2.995747e-13
0,0,0.6794929504394531,0.99995446,4.4446908e-05,1.3423798e-10,1.13801e-06,1.6811318e-10
0,0,0.6780624389648438,0.99999607,1.6267551e-06,3.199715e-10,2.3108e-06,8.874474e-09
0,0,0.6756782531738281,0.9999988,1.1262014e-06,9.99588e-14,4.3457266e-08,2.3174828e-11
0,0,0.6730556488037109,0.9992694,0.0007131523,8.21549e-06,9.150709e-06,5.605948e-09
0,0,0.6744861602783203,0.9999995,4.1522904e-07,2.0860634e-11,5.2357457e-08,3.719051e-11
0,0,0.6740093231201172,0.9999918,7.961213e-06,6.5814555e-11,2.2738529e-07,5.050859e-10
0,0,0.6721019744873047,0.99999905,9.1503415e-07,2.9219028e-21,1.3679674e-13,2.1907794e-18
0,0,0.6725788116455078,0.9999993,6.5996517e-07,1.1662397e-16,1.5545482e-10,4.4261222e-14
0,0,0.6711483001708984,0.99999917,2.4521157e-07,7.959456e-12,5.411331e-07,2.7113464e-11
0,0,0.67901611328125,0.99998903,1.9624416e-07,1.0433786e-05,1.2369058e-07,8.566538e-08
0,0,0.6773471832275391,0.99999547,3.256359e-08,1.0930719e-12,4.4834164e-06,9.122133e-12
0,0,0.6763935089111328,0.99999905,6.96931e-07,9.93966e-11,2.8129517e-07,2.0640933e-10
1,0,0.6759166717529297,0.99995446,4.1035226e-05,4.6095624e-07,3.488992e-06,4.2552358e-07
2,2,0.7236003875732422,1.3163519e-07,4.0982017e-05,0.9998405,0.000118373544,1.7332581e-09
0,0,0.6744861602783203,1.0,1.6578736e-10,6.4369806e-17,3.4296812e-12,1.7264097e-14
0,0,0.6747245788574219,1.0,2.1492282e-10,1.4460034e-18,1.074323e-13,4.0349147e-15
0,0,0.6744861602783203,0.9995048,0.00045528408,7.8631865e-07,3.8783564e-05,2.6984785e-07
0,0,0.6711483001708984,0.99999726,2.739565e-06,2.188409e-13,1.1406691e-09,1.1404553e-10
0,0,0.6718635559082031,1.0,1.3983695e-10,1.1914766e-16,2.8650103e-12,6.5378806e-15
0,0,0.6723403930664062,0.99999917,8.363779e-07,3.986841e-14,5.646175e-09,3.2213622e-12
0,0,0.6771087646484375,0.99999726,1.4815653e-07,1.9957366e-10,2.5689117e-06,9.621092e-10
0,0,0.6744861602783203,0.9999521,4.7255246e-05,1.599647e-07,5.5135604e-07,6.503051e-09
1,1,0.6747245788574219,0.0026333916,0.9260651,0.06725994,0.004041238,3.6377486e-07
2,2,0.6771087646484375,1.3304511e-08,1.474142e-12,0.9998642,0.0001353815,3.8400032e-07
0,0,0.6759166717529297,0.9999982,1.0145878e-06,8.734153e-10,7.245865e-07,3.83042e-10
0,0,0.6740093231201172,0.9998097,0.0001862202,6.4003065e-09,4.143491e-06,1.2050639e-09
0,0,0.6742477416992188,0.99998844,2.697436e-06,5.8241223e-08,8.738817e-06,1.1610342e-07
0,0,0.701904296875,0.99997306,2.180226e-05,1.0205978e-09,5.0169406e-06,1.0190933e-07
2,2,0.6728172302246094,1.3700809e-10,1.757525e-10,0.9999639,3.6135007e-05,5.0570375e-08
0,0,0.6754398345947266,0.99999964,3.308677e-07,1.176696e-10,2.860161e-08,2.0442421e-10
1,1,0.6718635559082031,0.04540998,0.9535981,0.0008103341,0.00018155764,7.679141e-09
0,0,0.6780624389648438,0.9995409,6.663678e-08,0.00024284128,0.0002041696,1.2007599e-05
0,0,0.6761550903320312,0.9998753,0.0001135939,2.2961329e-10,1.110484e-05,2.0300652e-08
0,0,0.6742477416992188,0.9998118,0.00016463261,1.6754988e-06,1.7805605e-05,4.0798323e-06
1,1,0.6775856018066406,0.0004868687,0.99947625,1.1620831e-05,2.521145e-05,1.9364374e-10
0,0,0.6754398345947266,0.99997485,2.6103405e-06,2.919922e-09,2.2538421e-05,5.4302385e-09
0,0,0.6723403930664062,0.9999951,4.769904e-06,5.16692e-13,1.015683e-07,1.4616072e-11
2,2,0.6754398345947266,7.260159e-11,3.6401718e-06,0.9999702,2.6145852e-05,1.9826027e-08
0,0,0.6747245788574219,0.9999511,1.2948901e-07,4.8454134e-05,3.189793e-07,1.3957311e-08
0,0,0.6742477416992188,0.99998856,1.1424251e-05,4.4226677e-13,1.3191289e-08,3.4825032e-11
0,0,0.7014274597167969,0.9999993,6.54323e-07,7.6780244e-18,1.2932339e-08,4.8770834e-13
0,0,0.6742477416992188,1.0,1.1083376e-08,1.6923254e-16,4.930604e-10,1.06229485e-13
0,0,0.6773471832275391,0.999882,2.9151341e-08,0.00011127575,6.6059324e-06,1.992101e-08
0,0,0.675201416015625,0.9999989,2.413471e-08,1.0756185e-06,2.5650285e-08,1.1782032e-08
0,0,0.6761550903320312,0.9999993,3.3927136e-10,6.739747e-09,7.62509e-07,9.3710976e-11
0,0,0.6814002990722656,0.99999905,5.793939e-07,1.8446018e-08,2.018968e-07,1.0722085e-07
0,0,0.6756782531738281,0.99999714,5.333047e-07,3.7660337e-11,2.323766e-06,3.0925665e-10
0,0,0.6721019744873047,0.99987113,0.00012489011,2.1394957e-10,3.907e-06,8.845191e-10
0,0,0.6730556488037109,0.99999964,3.3891337e-07,1.0486441e-12,8.398833e-09,5.6202376e-10
2,2,0.6725788116455078,3.760101e-06,5.983858e-08,0.99999547,6.734505e-07,2.436717e-10
2,2,0.6725788116455078,5.070405e-07,6.509213e-07,0.9999349,6.263893e-05,1.2750814e-06
0,0,0.6732940673828125,1.0,5.2942684e-10,7.0127155e-12,1.0945473e-09,2.0332089e-12
0,0,0.6735324859619141,0.9999887,8.196176e-07,4.8801034e-09,1.0469996e-05,4.630914e-09
0,0,0.6778240203857422,0.99999976,1.9235786e-07,4.8782995e-15,8.9487386e-08,4.635651e-12
2,2,0.7059574127197266,2.405974e-06,0.00012253723,0.9984977,0.0013538667,2.3480006e-05
0,0,0.6730556488037109,0.99999905,9.796673e-07,1.4881191e-16,2.7893021e-09,8.629242e-14
0,0,0.6749629974365234,0.99999845,3.8059102e-07,1.4623755e-12,1.158885e-06,1.4272632e-08
0,0,0.6763935089111328,0.99997354,1.7858196e-05,5.896825e-08,8.070073e-06,4.3524417e-07
2,2,0.675201416015625,1.0226556e-17,1.9081396e-17,1.0,2.8199147e-12,1.3071882e-17
0,0,0.6730556488037109,0.99986327,1.1925631e-10,7.911227e-09,0.00013675532,3.79503e-09
0,0,0.6742477416992188,1.0,1.9636376e-12,6.94066e-23,4.4098137e-17,1.7335127e-19
1,1,0.6723403930664062,0.121265,0.8782724,6.6431676e-05,0.00039618468,3.0810693e-08
0,0,0.6718635559082031,0.99999607,2.6695361e-06,1.766375e-08,1.256008e-06,2.0416875e-09
0,0,0.6725788116455078,0.9999093,9.034374e-05,6.183289e-08,2.67022e-07,4.5635126e-10
0,0,0.6778240203857422,0.9999901,6.8724667e-06,1.014417e-08,2.7253175e-06,1.848753e-07
0,1,0.6771087646484375,0.062466536,0.93744504,6.5372994e-08,8.7345485e-05,1.0426097e-06
0,0,0.6730556488037109,0.9998516,0.0001254834,2.8479858e-06,1.8931742e-05,1.0971767e-06
2,2,0.6749629974365234,3.3192435e-11,3.787725e-07,0.99994767,5.194244e-05,3.1900035e-11
0,0,0.7035732269287109,0.99998474,2.3578585e-15,1.522588e-05,5.7186252e-08,9.420292e-12
2,2,0.6735324859619141,8.251695e-18,1.13098e-08,0.99999976,2.550613e-07,2.6019514e-20
0,0,0.6728172302246094,0.9999988,1.2033481e-06,5.063729e-12,2.8063901e-08,1.2650825e-10
0,0,0.6740093231201172,1.0,4.159232e-09,6.3487517e-09,7.9062445e-09,2.056108e-09
0,0,0.6735324859619141,0.99973446,0.00025617104,3.1409787e-08,9.246776e-06,8.561106e-08
0,0,0.6740093231201172,1.0,3.7512153e-09,2.7244783e-16,7.3629497e-10,3.8248872e-13
0,0,0.6742477416992188,0.99999976,2.0709103e-09,3.5545604e-09,2.0603103e-07,7.4393845e-11
0,0,0.6766319274902344,0.999997,2.8933964e-06,4.6656606e-10,1.4249825e-07,1.0767816e-09
0,0,0.6771087646484375,1.0,9.23734e-10,1.6608267e-25,2.1280431e-16,5.125097e-19
0,0,0.6761550903320312,0.99982256,0.00016783683,9.439444e-09,9.6883605e-06,3.7879428e-08
0,0,0.6766319274902344,0.99999857,2.4925717e-12,1.3108054e-06,7.942861e-08,2.4795674e-10
1,1,0.6754398345947266,2.7669955e-06,0.9998752,2.6715002e-06,0.00011930951,4.0441886e-11
0,0,0.6749629974365234,0.99963844,0.000354916,2.2355725e-06,4.3225104e-06,4.6505253e-08
0,0,0.7023811340332031,0.99994946,2.0570007e-05,1.8093381e-08,1.8521137e-05,1.1411609e-05
0,0,0.6768703460693359,0.99999976,1.1315168e-07,1.9571789e-09,8.399318e-08,4.5562675e-08
0,0,0.6744861602783203,0.99998355,6.4378437e-06,3.1035658e-08,9.866829e-06,1.6801063e-07
0,0,0.6744861602783203,0.9984219,0.00042754333,0.0010981672,5.0515875e-05,1.8144425e-06
0,0,0.6737709045410156,0.9999807,1.1818826e-05,1.3853246e-07,6.7322126e-06,5.798144e-07
0,0,0.6785392761230469,0.99892896,7.585001e-06,0.000916482,0.00014596336,1.0411096e-06
0,0,0.6766319274902344,0.9999509,1.2295248e-05,5.0524402e-08,3.6639853e-05,7.5987295e-08
0,0,0.6783008575439453,0.99991727,7.435942e-05,7.9085396e-07,7.073512e-06,5.334371e-07
0,0,0.6775856018066406,0.9999993,7.1668126e-07,2.170557e-11,3.011749e-08,4.3187207e-10
0,0,0.6802082061767578,1.0,2.1056032e-08,6.4554556e-11,1.7844103e-08,2.563435e-13
0,0,0.6785392761230469,0.9999851,5.1671574e-08,1.4607373e-05,1.5843607e-07,2.272748e-08
0,0,0.6744861602783203,0.9998276,0.00015604199,3.7467365e-07,1.3727551e-05,2.2745648e-06
2,2,0.6728172302246094,4.2786898e-08,1.3701922e-14,0.9999975,2.5329205e-06,9.1562574e-10
0,0,0.6737709045410156,0.99999917,7.686667e-07,2.419761e-10,8.474636e-09,1.2058199e-11
0,0,0.7011890411376953,0.9999392,2.288952e-05,2.079931e-05,1.714902e-05,4.118422e-08
0,0,0.6744861602783203,0.99999917,8.1487815e-07,1.5219985e-11,2.177352e-08,1.09096086e-10
0,0,0.6811618804931641,0.99978894,0.000101434554,8.344245e-06,9.3387716e-05,7.8907815e-06
0,0,0.6780624389648438,0.9999629,2.3529635e-06,1.3599679e-09,3.4578297e-05,1.07288365e-07
2,2,0.6771087646484375,1.7268608e-13,7.0014613e-15,0.99789786,0.0021001105,1.98052e-06
0,0,0.6749629974365234,0.99999595,1.4600972e-20,4.0995756e-06,5.0473488e-09,2.4770092e-13
0,0,0.6773471832275391,0.9999907,1.4845152e-08,4.435051e-10,9.23257e-06,8.006934e-10
0,0,0.6766319274902344,0.98812175,0.00039193896,0.011359759,0.00011730811,9.263145e-06
0,0,0.6735324859619141,0.9999963,3.6648837e-06,2.0084708e-13,2.1752951e-08,2.022589e-11
0,0,0.6737709045410156,1.0,1.40792515e-08,1.7941397e-16,1.282148e-12,2.5206628e-16
0,0,0.6735324859619141,0.9997799,1.4254519e-05,0.0002039537,1.956979e-06,1.2611501e-08
0,0,0.6735324859619141,0.9999969,1.9804365e-07,4.0590094e-11,2.8754555e-06,2.8265856e-10
1,1,0.6730556488037109,8.031406e-08,0.996779,0.00080557354,0.0024153509,4.182665e-09
0,0,0.6773471832275391,0.99999774,1.4149714e-06,2.1120542e-08,8.846241e-07,3.411427e-11
0,0,0.7081031799316406,0.9999956,7.456636e-09,4.4249e-06,1.1270556e-09,1.1204628e-12
0,0,0.6797313690185547,0.9999999,1.2219509e-08,1.2410796e-09,8.891761e-08,2.649941e-10
0,0,0.6737709045410156,0.99999666,2.1838455e-06,7.270509e-11,1.1976692e-06,2.9280026e-11
2,2,0.67901611328125,2.3721332e-06,6.2466697e-06,0.99950445,0.0004868237,6.336683e-08
0,0,0.6737709045410156,1.0,1.2606202e-11,6.042675e-16,8.546887e-11,1.07828045e-10
0,0,0.6763935089111328,0.99999833,1.6384313e-06,1.487317e-17,2.3042426e-10,1.2115916e-15
0,0,0.6723403930664062,0.99999964,3.5996752e-07,1.6159624e-15,5.1502567e-09,1.5949949e-12
0,0,0.6725788116455078,0.9999975,3.8814525e-07,1.9234593e-10,2.1350045e-06,5.017741e-10
0,0,0.6744861602783203,0.9999989,2.3014045e-12,9.854431e-07,8.364889e-08,2.3387053e-10
0,0,0.6756782531738281,1.0,1.9729747e-08,3.0177495e-15,3.4442348e-08,8.729929e-12
0,0,0.6778240203857422,0.9998276,0.00011661088,1.588793e-06,5.4100623e-05,1.3122802e-07
0,0,0.6771087646484375,0.9999958,3.0988099e-06,4.4649887e-12,1.1039751e-06,8.156213e-10
0,0,0.6759166717529297,0.99959975,7.576484e-06,2.1237005e-05,0.00033158384,3.993492e-05
0,0,0.7011890411376953,0.99999964,2.9816215e-07,1.3075587e-22,4.839083e-14,4.6647305e-17
0,0,0.6778240203857422,0.9999957,3.3742094e-06,2.0881744e-10,9.0436635e-07,3.7173156e-10
0,0,0.6763935089111328,0.99993443,6.0114588e-05,2.9897864e-09,5.5006985e-06,7.902335e-09
0,0,0.6732940673828125,0.99999845,2.3403744e-07,1.00308234e-10,1.2957623e-06,2.6913186e-10
0,0,0.6723403930664062,0.9999591,3.4548764e-05,2.2156218e-08,6.3273105e-06,2.1957648e-08
0,0,0.6735324859619141,0.99999964,2.2961721e-07,1.1700551e-15,1.15030595e-07,1.2521121e-12
0,0,0.6725788116455078,0.9860518,1.7433353e-05,2.5293453e-08,0.013909942,2.0822174e-05
0,0,0.6749629974365234,0.9996276,0.000306969,7.6650124e-08,6.526199e-05,4.3860332e-08
0,0,0.6763935089111328,0.99999833,2.4416487e-08,4.5442303e-07,1.0252337e-06,6.977774e-08
0,0,0.6773471832275391,0.9999989,7.655244e-09,1.1038554e-06,4.0441556e-08,5.009642e-09
0,0,0.6756782531738281,0.9999995,3.966521e-07,7.309205e-13,9.1947705e-08,2.680797e-11
0,0,0.6761550903320312,0.9999598,3.6588048e-05,3.81412e-07,3.1414772e-06,1.2078893e-07
0,0,0.6749629974365234,0.9999999,8.5333305e-08,2.6426109e-15,6.092241e-08,1.5378445e-11
0,0,0.6773471832275391,0.99999976,2.2524476e-07,4.467212e-16,8.8115435e-09,7.076992e-13
0,0,0.7047653198242188,0.99999976,4.1599943e-08,9.184742e-09,1.943117e-07,1.5884822e-09
0,0,0.6744861602783203,1.0,1.1441177e-08,6.9466476e-15,2.9474911e-10,1.7510474e-13
0,0,0.6744861602783203,0.9999883,1.1721294e-05,3.052666e-13,1.5458104e-08,1.030408e-11
2,2,0.6766319274902344,8.992128e-16,6.7452005e-10,0.9999999,1.2345434e-07,3.283431e-14
0,0,0.6742477416992188,0.9999982,1.3990527e-06,7.746722e-08,2.3194542e-07,7.4364155e-09
0,0,0.6780624389648438,0.99999976,2.657383e-07,4.836616e-08,6.2008305e-09,3.5398578e-13
0,0,0.6768703460693359,1.0,6.9924377e-09,3.6291076e-14,4.3532293e-09,1.7957934e-12
0,0,0.6773471832275391,0.9993612,5.9338334e-05,9.2712884e-07,0.0005783276,8.401434e-08
0,0,0.6773471832275391,1.0,1.1589358e-09,7.1631316e-25,1.7651521e-16,9.564528e-21
0,0,0.6759166717529297,0.99997985,1.2557918e-05,2.510519e-07,7.1610953e-06,2.6240124e-07
0,0,0.6761550903320312,0.9971167,4.5070185e-05,0.0028256446,1.22272495e-05,3.6399007e-07
0,0,0.6728172302246094,0.9999945,3.888968e-06,2.8418655e-11,1.6419491e-06,5.661696e-10
0,0,0.6735324859619141,0.9999987,1.1446734e-07,3.2188256e-15,1.2485114e-06,5.762603e-11
0,0,0.6747245788574219,0.9999993,6.846869e-07,1.7875614e-14,2.0521076e-08,6.83649e-12
0,0,0.7040500640869141,0.99999976,2.2715886e-07,2.0250827e-18,4.4276596e-11,2.7976952e-17
0,0,0.6814002990722656,1.0,1.677537e-11,1.3142534e-17,1.5067021e-12,3.0522735e-15
0,0,0.6785392761230469,1.0,1.01506425e-11,9.90844e-18,1.0204116e-12,5.479676e-15
0,0,0.6787776947021484,0.9999819,9.234932e-07,2.0473403e-09,1.71669e-05,3.4138496e-09
0,0,0.6792545318603516,0.9999949,5.0999465e-06,3.3548147e-11,1.6783405e-08,8.420999e-11
2,2,0.6747245788574219,1.733591e-06,2.6923163e-07,0.9999355,6.1299026e-05,1.1139691e-06
0,0,0.6761550903320312,0.99991715,6.7347355e-05,2.6430569e-06,1.2804431e-05,1.5082213e-07
0,0,0.6742477416992188,0.99999,6.820714e-06,1.6655939e-06,1.5298713e-06,5.512915e-08
0,0,0.6759166717529297,0.9999995,1.3145603e-07,4.836306e-10,3.7620512e-07,7.661683e-11
0,0,0.6747245788574219,1.0,1.1153591e-08,2.279986e-15,9.0238733e-10,4.239372e-13
0,0,0.6742477416992188,0.99999964,9.15829e-09,2.5027325e-07,6.241211e-08,1.957351e-08
0,0,0.6730556488037109,0.99999475,1.35704505e-08,9.507842e-07,4.336746e-06,6.521215e-09
0,0,0.6775856018066406,0.9999782,2.1781694e-05,4.895723e-13,2.3307463e-08,8.8869925e-11
0,0,0.7045269012451172,0.9999585,2.1115717e-05,5.3466902e-08,2.0339194e-05,1.3304928e-08
0,0,0.6799697875976562,0.9999995,4.1679775e-07,1.10868685e-14,8.539168e-09,4.4315844e-12
0,0,0.6783008575439453,1.0,9.538366e-10,2.375914e-17,7.567845e-12,1.142197e-15
0,0,0.6773471832275391,0.9999832,6.8359054e-06,1.3467386e-06,5.5505975e-06,3.0955805e-06
0,0,0.6768703460693359,0.9999647,3.527842e-05,1.02243925e-11,5.8230736e-08,3.2218997e-10
0,0,0.6763935089111328,0.99985266,0.00014330164,7.427765e-07,3.2489802e-06,5.1206355e-09
0,0,0.6735324859619141,0.9999989,6.6959365e-07,1.2529433e-11,3.923221e-07,6.65469e-11
0,0,0.6737709045410156,0.9999994,4.8681954e-07,9.979504e-10,7.9869544e-08,4.802214e-13
0,0,0.6730556488037109,0.9999994,5.3592964e-07,1.5833355e-14,2.2374238e-09,1.3598391e-12
2,2,0.6740093231201172,8.587829e-13,7.2447597e-22,1.0,1.2381981e-08,1.4337637e-13
0,0,0.6797313690185547,0.9999883,7.266994e-06,2.4592586e-08,4.3715568e-06,5.503059e-09
0,0,0.7288455963134766,0.99995255,4.137912e-05,6.723627e-09,6.0407306e-06,3.138166e-08
0,0,0.7832050323486328,0.99999976,2.9615887e-07,6.744685e-14,1.7591038e-10,5.035489e-14
0,0,0.6961822509765625,0.9998265,0.00016967508,8.035569e-11,3.8387543e-06,2.262552e-09
0,2,0.6895065307617188,0.00018020564,2.2734665e-11,0.99897754,7.0077884e-05,0.00077223266
0,0,0.6818771362304688,0.9999994,6.297258e-07,1.7218885e-16,6.1089295e-10,3.820224e-14
0,0,0.6754398345947266,0.9999993,7.4521927e-07,9.654839e-15,1.7848268e-09,1.0416566e-12
0,0,0.6732940673828125,0.99999917,6.835086e-07,1.107493e-09,1.3718729e-07,3.577843e-08
0,0,0.6744861602783203,0.99998343,2.9178636e-06,1.8487513e-07,1.3463634e-05,3.7628997e-08
0,0,0.6730556488037109,0.99998665,1.3096845e-05,1.4296084e-12,2.4440675e-07,3.1646984e-11
0,0,0.6754398345947266,1.0,3.7735477e-09,2.1628614e-13,1.3368516e-08,4.38256e-14
0,0,0.6768703460693359,0.99999654,3.4547004e-06,1.9520024e-12,7.18965e-09,2.2831417e-11
0,0,0.6768703460693359,0.9999999,4.5793197e-20,1.5530993e-07,4.094801e-10,9.021771e-14
0,0,0.6763935089111328,0.9990702,0.00088674383,2.0690131e-05,2.2368487e-05,4.3444498e-08
0,1,0.6756782531738281,0.11535139,0.88464445,2.254919e-09,4.237785e-06,1.7999922e-08
2,0,0.6768703460693359,0.96461964,0.0073898467,0.026972443,0.0010174504,6.8528624e-07
0,0,0.6775856018066406,0.999833,0.0001653872,3.4025516e-07,1.2609971e-06,8.912763e-10
0,0,0.7083415985107422,0.9990677,0.00072251604,1.5070207e-05,0.00019385504,7.8224633e-07
0,0,0.6773471832275391,0.99999964,8.124407e-12,3.0280754e-07,1.01105595e-08,2.2899099e-10
0,0,0.6747245788574219,0.9999987,7.925372e-07,4.1699977e-09,5.1585346e-07,4.38827e-09
0,0,0.6749629974365234,0.99999917,8.22984e-07,1.9339687e-14,4.6899324e-09,2.0805382e-12
2,2,0.6768703460693359,0.0003264757,0.00026799412,0.9974492,0.0019502157,6.1005553e-06
0,0,0.6749629974365234,0.9994746,0.00016456012,0.0002503341,0.000104200924,6.3568427e-06
0,0,0.6768703460693359,0.99995553,3.4630415e-05,7.941863e-09,9.787417e-06,7.904445e-09
2,2,0.6780624389648438,4.4823146e-06,6.162495e-06,0.99998903,3.1805638e-07,3.2106748e-12
0,0,0.6761550903320312,0.9999887,1.0904727e-05,2.5896893e-12,3.895796e-07,4.8670307e-10
0,0,0.6761550903320312,0.99999845,1.5235681e-06,7.976304e-16,3.1927117e-10,7.8957836e-14
0,0,0.6749629974365234,0.99912316,3.588522e-08,1.8588773e-07,0.0008766345,4.7528857e-08
0,0,0.6740093231201172,0.9991074,1.2666503e-05,4.9001678e-11,0.0008790996,8.1002196e-07
0,0,0.6732940673828125,0.99995124,1.6271127e-07,4.7875248e-05,7.0743755e-07,2.9299563e-09
0,0,0.6735324859619141,0.9997925,0.00020559377,2.8364183e-11,1.8678634e-06,7.244903e-10
0,0,0.7066726684570312,0.9999589,1.0297442e-05,1.4543203e-05,1.6252301e-05,3.784093e-10
1,1,0.6778240203857422,0.00039917658,0.9996008,3.7338843e-15,2.8338765e-09,2.894022e-13
0,0,0.6759166717529297,0.9985526,0.0014471997,3.3671941e-12,1.18540726e-07,5.1904845e-11
0,0,0.6792545318603516,0.9999994,6.181698e-07,1.5347236e-18,3.6694653e-12,1.4227823e-16
0,0,0.6780624389648438,0.9999993,3.3875617e-07,4.016037e-07,3.0516187e-08,2.3214833e-11
0,0,0.6754398345947266,1.0,1.4969286e-08,2.2818925e-14,4.326369e-09,2.7719455e-13
0,0,0.6756782531738281,1.0,6.1639467e-09,4.8572226e-16,2.669913e-12,1.812914e-13
0,0,0.6768703460693359,0.99996006,3.2245458e-05,5.9014717e-08,7.69642e-06,5.2507797e-08
0,0,0.6754398345947266,0.9999989,1.061454e-06,8.90268e-12,2.443812e-08,1.4543443e-10
0,0,0.6735324859619141,0.9999988,1.2366567e-06,3.3718806e-14,1.3808299e-10,9.370788e-15
0,0,0.6735324859619141,0.99999964,1.1063386e-09,1.3490102e-08,4.034199e-07,1.6778794e-10
0,0,0.6735324859619141,0.9999951,1.7553706e-06,5.279827e-08,3.062022e-06,8.942861e-08
0,0,0.6742477416992188,0.9999893,5.8913673e-07,1.3199308e-11,1.0172067e-05,2.7105158e-09
0,0,0.7054805755615234,1.0,7.76084e-09,4.9648433e-17,1.5521524e-10,2.4916123e-14
0,0,0.6814002990722656,0.9998491,0.00015024406,1.3396955e-07,4.9185877e-07,1.1738207e-09
0,0,0.67901611328125,0.9999988,7.714578e-09,1.3913448e-09,1.1602035e-06,6.054765e-10
0,0,0.6771087646484375,0.92223066,0.07739868,6.162033e-05,0.0003091445,5.0943058e-08
0,0,0.6742477416992188,0.9999968,2.2615804e-07,8.388105e-11,2.946144e-06,1.0433477e-09
0,0,0.6735324859619141,0.9999993,3.6383756e-08,9.676631e-11,6.788029e-07,3.937409e-11
0,0,0.6737709045410156,0.99997723,2.2703076e-05,2.53686e-12,6.727834e-09,3.030279e-10
0,0,0.6728172302246094,0.9999856,9.247326e-06,1.5804883e-08,5.187542e-06,2.1626004e-08
0,0,0.6728172302246094,0.99999726,2.4902213e-06,8.7155727e-10,2.9388144e-07,2.6264751e-10
0,0,0.6756782531738281,1.0,4.2890462e-11,1.7480529e-22,4.568895e-16,2.9081416e-19
0,0,0.6759166717529297,0.99999285,7.184535e-06,9.2833284e-12,2.7911633e-09,3.7834497e-10
0,0,0.6728172302246094,0.9998852,0.00011231059,9.09357e-10,2.474409e-06,3.2861076e-09
0,0,0.6759166717529297,0.9945985,0.00092383387,1.5855863e-06,0.0044757165,3.9818454e-07
0,0,0.6787776947021484,0.9941758,9.2702896e-05,0.005731107,2.8694993e-07,3.407793e-09
0,0,0.7073879241943359,0.9999995,7.3105157e-09,2.0166654e-07,2.5728465e-07,2.800888e-09
0,0,0.6802082061767578,0.99998283,1.30664785e-05,1.1828526e-07,3.821466e-06,1.0422562e-07
0,0,0.6759166717529297,0.99970466,1.1629552e-07,3.261604e-05,0.0002624373,1.0019747e-07
2,2,0.6725788116455078,1.3460658e-11,2.658013e-12,1.0,6.435681e-09,2.9795422e-16
0,0,0.6732940673828125,1.0,3.0909213e-08,2.398805e-09,2.5448077e-08,5.5928453e-09
0,0,0.6730556488037109,0.99999344,1.658841e-09,1.6233674e-10,6.5927784e-06,1.4043072e-10
0,0,0.6730556488037109,0.99999774,3.0169144e-07,7.024196e-07,8.558443e-07,3.033735e-07
2,2,0.6785392761230469,1.7906428e-08,6.259063e-11,0.99982846,0.00017126063,2.6744456e-07
0,0,0.6759166717529297,0.9999975,1.6216256e-06,1.572804e-10,9.091127e-07,4.0611527e-09
2,2,0.6756782531738281,1.9754521e-05,5.5223943e-05,0.7988049,0.19431038,0.0068098237
0,0,0.6783008575439453,0.99999917,8.125935e-07,8.143117e-11,5.4487685e-08,3.0538452e-10
2,2,0.6766319274902344,8.296113e-16,8.187788e-27,1.0,1.4941676e-23,8.549334e-18
0,0,0.6740093231201172,0.99999547,3.7746088e-06,1.7384106e-13,7.4386446e-07,4.9817034e-10
0,0,0.6754398345947266,0.9999738,2.6181577e-05,4.859215e-13,3.6434425e-08,3.826812e-11
0,0,0.705718994140625,0.999964,2.9724417e-05,7.4763057e-10,6.309854e-06,2.9816928e-08
0,0,0.6737709045410156,0.99999595,3.1559097e-07,1.037055e-10,3.697669e-06,1.0025715e-09
0,0,0.6732940673828125,0.99999106,1.5952332e-07,5.9654946e-12,8.757929e-06,6.485811e-10
0,0,0.6730556488037109,0.99998355,1.4947493e-09,8.8195094e-08,1.6369055e-05,4.7057993e-09
2,2,0.6775856018066406,1.5110001e-18,2.1384104e-16,1.0,1.307451e-12,4.3821538e-20
0,0,0.6740093231201172,0.9988212,0.0010914019,9.576911e-07,8.627201e-05,1.5944477e-07
0,0,0.6735324859619141,0.99999666,2.4974e-06,1.500781e-11,8.440408e-07,1.7074141e-10
0,0,0.6766319274902344,0.9995048,0.00048758797,1.0500708e-07,7.4763448e-06,4.2950393e-08
0,0,0.6768703460693359,0.9999939,2.7998963e-08,5.5252904e-06,5.1922996e-07,3.565424e-09
0,0,0.6756782531738281,1.0,2.3824821e-08,6.4948276e-15,9.648174e-09,2.2148839e-12
0,0,0.6725788116455078,1.0,5.6655576e-08,3.2811388e-15,5.733295e-11,7.198332e-13
0,0,0.6711483001708984,0.9987602,0.0008536895,5.7452394e-07,0.00037797022,7.551301e-06
0,0,0.6725788116455078,0.9999999,1.2681578e-07,2.2768555e-16,5.2819975e-12,4.700331e-17
2,2,0.6976127624511719,1.3707699e-15,9.646494e-14,1.0,3.2536807e-11,4.6201175e-19
0,0,0.6749629974365234,0.9999957,4.253044e-06,4.379987e-09,3.9459188e-08,1.2081393e-10
0,0,0.6785392761230469,0.99997187,2.4031775e-05,1.946675e-08,3.719554e-06,3.3605818e-07
0,0,0.6747245788574219,0.998326,1.2230192e-06,0.0016709783,1.8065816e-06,1.8142412e-09
0,0,0.6768703460693359,0.9999957,1.1398114e-15,4.2809315e-06,1.7181636e-14,3.5659913e-11
0,0,0.6787776947021484,0.9999641,1.298031e-13,3.586855e-05,3.0202012e-09,1.1844296e-13
0,0,0.675201416015625,0.9999471,3.15565e-07,5.259249e-05,7.651042e-08,2.379613e-08
0,0,0.6759166717529297,0.99975306,0.00023493086,6.099308e-11,1.2039046e-05,2.0136548e-09
0,0,0.6756782531738281,0.9999988,8.2695166e-08,2.0266288e-08,1.0898875e-06,1.2343694e-08
0,0,0.6718635559082031,0.99998605,1.1994493e-05,2.2589296e-08,1.9291417e-06,2.1762023e-08
0,0,0.6740093231201172,1.0,2.1361444e-08,3.3253182e-14,3.9544534e-10,1.7468151e-12
0,0,0.6718635559082031,0.9997495,0.00022401771,9.519794e-08,2.6249925e-05,8.420599e-08
0,0,0.6730556488037109,0.9999999,4.47636e-14,9.165182e-08,2.0671536e-09,1.0117993e-11
0,0,0.6766319274902344,0.99999976,1.871895e-07,1.794059e-14,1.3718873e-10,1.34310835e-11
0,0,0.6966590881347656,0.99963415,7.654526e-05,0.0002881131,1.0914232e-06,1.15334985e-10
0,0,0.6761550903320312,0.9999999,6.3793436e-08,4.421775e-16,3.786893e-09,1.8868047e-13
0,0,0.6763935089111328,0.999979,1.4136143e-05,9.224597e-09,6.8855175e-06,2.8107685e-09
0,0,0.6759166717529297,1.0,9.626149e-10,1.9620484e-10,5.7868927e-09,1.42229015e-11
0,0,0.6737709045410156,0.9986852,1.348617e-09,1.1601384e-07,0.0013136172,1.1047238e-06
0,0,0.6744861602783203,0.9999999,1.2387643e-07,1.8910373e-10,1.3199492e-08,1.0028719e-09
0,0,0.67138671875,0.9998161,1.8539741e-06,0.00013635533,4.0798946e-05,4.89504e-06
0,0,0.6725788116455078,0.9999982,1.7563372e-06,1.823236e-11,5.554493e-08,2.7068034e-10
0,0,0.6728172302246094,0.9999833,7.4616846e-06,1.6427437e-06,4.006232e-06,3.5607297e-06
0,0,0.6756782531738281,0.99996054,2.742128e-06,3.169381e-08,3.6733625e-05,4.6822276e-08
0,0,0.6787776947021484,0.9999988,1.1966168e-06,3.064167e-13,3.061785e-08,3.9407203e-11
0,0,0.6780624389648438,0.999997,1.1344337e-08,1.4160548e-11,2.9172302e-06,1.1417903e-12
1,0,0.6740093231201172,0.9567069,0.0432931,7.145776e-09,3.0632076e-08,1.4805084e-11
1,0,0.6763935089111328,0.9868793,0.0119229695,1.0558955e-05,0.0011619305,2.5246894e-05
0,0,0.7073879241943359,0.9999417,1.8474018e-05,4.2382285e-07,3.9116992e-05,1.9106125e-07
0,0,0.6780624389648438,0.9999981,1.8123726e-06,5.4431248e-11,6.773585e-08,9.084402e-10
0,0,0.6744861602783203,0.999987,1.2640566e-05,1.2298042e-10,3.9631104e-07,1.1578667e-09
0,0,0.6744861602783203,0.99982625,9.323933e-06,0.00016371076,6.839198e-07,5.684813e-08
0,0,0.6725788116455078,0.9999956,4.2828865e-06,1.3110675e-10,1.6337388e-07,4.93205e-10
0,0,0.6718635559082031,0.99999905,3.7423433e-09,1.2883272e-15,9.665285e-07,4.56281e-13
0,0,0.6718635559082031,0.99996626,1.0103943e-05,2.2698192e-05,8.4391536e-07,1.2565161e-07
0,0,0.6761550903320312,0.9999999,1.1707856e-07,5.534054e-18,1.1772396e-10,1.3045598e-14
0,0,0.6759166717529297,0.9998024,0.00016351276,1.4804048e-06,2.9495955e-05,3.180342e-06
0,0,0.6768703460693359,0.99999917,7.7863444e-07,1.1428604e-12,6.170426e-08,7.2838936e-11
0,0,0.6763935089111328,0.9999958,2.6999044e-07,1.7858617e-10,3.8955027e-06,4.4643797e-10
0,0,0.6763935089111328,1.0,7.638567e-09,3.5733005e-10,2.0355298e-08,4.4056987e-11
0,0,0.6756782531738281,1.0,2.7555112e-08,2.0856298e-12,2.7422136e-09,1.9589977e-13
0,0,0.6723403930664062,0.9999068,1.502853e-07,1.974461e-09,9.30866e-05,7.3308054e-10
0,0,0.7030963897705078,0.9998722,0.00011429466,2.8028603e-06,9.952746e-06,7.0441354e-07
0,0,0.6749629974365234,1.0,3.011323e-10,2.1956499e-19,1.8302731e-12,2.355376e-16
0,0,0.6732940673828125,0.99999225,5.1442447e-07,6.4078023e-09,7.261944e-06,4.846476e-09
0,0,0.6735324859619141,0.9999999,2.9326499e-08,1.5307144e-09,6.7949344e-08,1.1213335e-12
0,0,0.6775856018066406,1.0,2.6276027e-08,3.980648e-12,3.04274e-08,3.556351e-13
0,0,0.6756782531738281,0.9928405,0.00714161,4.6037349e-07,1.729954e-05,7.508463e-08
0,0,0.6744861602783203,0.9999969,2.0425226e-13,3.1102563e-06,5.9412866e-08,8.744688e-11
0,0,0.6756782531738281,0.99459344,1.7389981e-09,2.7271668e-07,0.005406144,1.271057e-07
0,0,0.6766319274902344,0.9999994,2.6132133e-07,3.348428e-09,2.2399284e-07,6.301737e-08
0,0,0.6742477416992188,0.99986684,1.3156317e-06,0.00012994168,1.8776719e-06,5.086417e-08
0,0,0.6723403930664062,1.0,1.5967756e-09,5.4987636e-11,3.78382e-08,6.1779753e-13
0,0,0.6723403930664062,0.9999447,5.4633714e-05,4.2913048e-11,6.9932446e-07,5.483057e-10
0,0,0.6737709045410156,0.99999535,4.5729507e-06,2.1015448e-12,3.5019422e-08,1.4426106e-11
0,0,0.7562637329101562,0.99976295,0.0002051658,3.1292523e-06,1.9814126e-05,8.91941e-06
0,0,0.6875991821289062,0.9999999,2.6486452e-08,9.384295e-13,8.115412e-08,7.981824e-12
0,0,0.6818771362304688,0.9999999,1.1680437e-08,2.9623725e-12,8.9914096e-08,1.4580626e-13
0,0,0.6775856018066406,0.99998283,1.4158203e-05,3.118148e-08,2.989753e-06,2.3228218e-08
0,0,0.675201416015625,0.9986852,0.0009000016,1.5003545e-07,0.00041357256,1.0253766e-06
0,0,0.6735324859619141,0.9999981,1.8220949e-06,1.3443603e-10,8.263771e-08,4.2879056e-09
0,0,0.6766319274902344,0.9997615,0.00019483827,2.5881622e-05,1.7647057e-05,1.3869798e-07
0,0,0.6744861602783203,0.9999969,2.6893342e-06,8.544713e-10,3.6364364e-07,9.649096e-10
0,0,0.6742477416992188,1.0,9.345015e-10,8.4644755e-18,2.0388556e-12,9.671543e-15
0,0,0.6747245788574219,0.9999995,2.6277806e-07,9.8344756e-11,1.7090588e-07,2.5944327e-09
0,0,0.6735324859619141,0.99999714,3.4729137e-08,9.492987e-09,2.8481884e-06,9.85342e-10
0,0,0.6742477416992188,0.99999845,2.6441968e-10,1.1838974e-08,1.53966e-06,5.7498467e-10
0,0,0.6749629974365234,1.0,1.1933145e-08,5.9800055e-23,2.705826e-15,4.9530363e-18
0,0,0.6787776947021484,0.99998987,9.018759e-06,2.7567646e-09,1.057518e-06,3.9946384e-09
0,0,0.7107257843017578,1.0,3.88799e-09,5.2024945e-10,7.75868e-09,2.2323045e-10
1,0,0.6783008575439453,0.999288,0.00061273295,3.8122757e-06,9.532544e-05,9.2926e-08
0,0,0.6728172302246094,1.0,7.992376e-10,5.7276436e-15,2.4020716e-11,4.178145e-14
0,0,0.6756782531738281,0.99999785,2.003782e-10,4.24305e-14,2.190034e-06,5.6348225e-11
0,0,0.6732940673828125,0.9999987,9.968121e-10,1.2486888e-06,1.4492954e-07,1.2529776e-09
0,0,0.6723403930664062,0.99998426,1.3744991e-05,8.973696e-07,1.0841028e-06,2.0620257e-09
0,0,0.6716251373291016,1.0,4.9388547e-08,7.4938535e-09,6.93404e-09,1.4217984e-12
0,0,0.6735324859619141,0.9997198,9.122413e-06,6.8328364e-11,0.00027102834,1.4833517e-08
0,0,0.6730556488037109,0.9999993,6.831645e-07,4.0496093e-14,1.1459034e-08,2.7486167e-12
0,0,0.6721019744873047,0.9999981,1.6226802e-06,6.694896e-09,2.2333302e-07,6.7542324e-08
0,0,0.6794929504394531,0.99999845,3.4920433e-07,7.100164e-11,1.1826202e-06,6.1606865e-11
0,0,0.6787776947021484,0.99999774,2.220268e-06,6.2807824e-17,3.322032e-11,4.752157e-16
0,0,0.6761550903320312,0.99998796,8.478959e-08,4.5424173e-08,1.1958378e-05,4.985357e-09
0,0,0.6725788116455078,0.9999405,3.85668e-05,8.988099e-06,1.0873049e-05,1.029116e-06
0,0,0.6802082061767578,0.99998355,1.6354074e-05,2.0576444e-12,6.757086e-08,1.3059902e-10
0,0,0.6749629974365234,0.99999964,3.736219e-07,6.272143e-12,3.3106937e-09,6.2230473e-12
0,0,0.6723403930664062,0.9999517,2.7275542e-05,1.4359587e-08,2.0987989e-05,3.1800948e-08
0,0,0.67138671875,0.99933463,0.0005956158,8.31971e-08,6.612547e-05,3.4789107e-06
0,0,0.6730556488037109,0.9999993,6.139583e-09,1.653487e-07,6.361663e-07,9.831275e-09
0,0,0.6723403930664062,1.0,8.775669e-09,3.4366666e-13,8.464796e-11,1.8002774e-14
0,0,0.67138671875,0.9999982,1.233821e-07,9.930916e-07,6.6598415e-07,2.0048168e-08
0,0,0.6756782531738281,0.999992,1.161678e-06,1.8643211e-09,6.850108e-06,2.747364e-09
0,0,0.6761550903320312,0.99999964,5.6688703e-13,3.3182232e-07,1.8756893e-08,5.3197616e-11
0,0,0.6763935089111328,0.99996805,2.4099985e-05,2.0219748e-07,7.4029535e-06,2.5669593e-07
0,0,0.6730556488037109,0.99995434,3.5833462e-05,1.4533078e-08,9.0011845e-06,8.8618236e-07
2,2,0.6747245788574219,9.614413e-08,2.4148586e-16,0.99999976,1.4222657e-07,2.3344588e-11
0,0,0.6926059722900391,1.0,1.53106e-08,2.5871128e-15,2.2129703e-09,1.6790243e-12
2,2,0.7011890411376953,1.3077629e-08,6.1111535e-08,0.9993765,0.0006228246,7.158941e-07
0,0,0.6735324859619141,0.9998524,0.00014628177,1.6287876e-08,1.1919476e-06,1.5830253e-07
0,0,0.6718635559082031,0.9999995,4.6490055e-07,3.9997622e-13,2.369225e-09,2.6562603e-14
0,0,0.6728172302246094,0.9967596,0.0007488876,0.0005118145,0.0016550724,0.00032470856
0,0,0.6747245788574219,0.9999982,1.7558247e-06,1.13140264e-13,1.093513e-08,4.257818e-12
0,0,0.6759166717529297,0.9986291,0.0006144705,0.00044182467,0.0003114836,3.266621e-06
2,2,0.6756782531738281,2.6729412e-26,6.0092643e-27,1.0,8.19392e-25,4.0333442e-23
0,0,0.6842613220214844,0.99999,5.9800764e-06,2.0625785e-07,3.5083315e-06,2.390254e-07
0,0,0.6740093231201172,0.99999666,5.314072e-09,1.0699971e-08,3.3150425e-06,8.7523494e-10
0,0,0.6766319274902344,1.0,3.8706112e-08,6.459963e-15,1.296501e-10,1.1746024e-13
0,0,0.6740093231201172,0.99979335,0.00017649091,2.0470354e-06,2.7798811e-05,4.1373045e-07
0,0,0.6721019744873047,0.99999905,9.271615e-07,4.7926797e-12,3.1266854e-08,1.4734117e-10
0,0,0.6718635559082031,0.9999697,2.5920437e-05,7.269035e-08,4.104448e-06,1.10082965e-07
0,0,0.6711483001708984,0.99993896,3.5588593e-05,7.3810893e-06,1.5948095e-05,2.1048081e-06
0,0,0.7126331329345703,0.9999478,6.8942944e-07,5.1208353e-05,2.959145e-07,2.729781e-09
0,0,0.6818771362304688,0.99999964,2.5285212e-08,7.938098e-08,2.3812741e-07,1.6463124e-09
0,0,0.6783008575439453,0.99999464,5.9565313e-09,1.1169705e-09,4.9593355e-06,3.347633e-07
0,0,0.6778240203857422,1.0,5.7440545e-11,7.9117344e-17,2.217213e-12,5.7674588e-15
0,0,0.6771087646484375,0.99995077,1.1471309e-05,7.3431113e-07,3.692736e-05,1.506307e-07
0,0,0.6730556488037109,1.0,8.414501e-09,3.4238255e-08,2.291782e-09,1.5370002e-11
0,0,0.6735324859619141,0.9999956,4.3086593e-06,5.443685e-10,6.527023e-08,3.2355538e-10
0,0,0.6732940673828125,0.9999987,1.3202512e-06,1.8504158e-19,4.1291795e-10,2.2871792e-14
3,2,0.6721019744873047,8.767915e-08,1.09864e-15,0.9113535,0.08861943,2.6974725e-05
0,0,0.6823539733886719,0.99999833,1.6309202e-06,7.785798e-12,6.208561e-09,6.119923e-13
0,0,0.6725788116455078,0.9999995,7.895964e-09,1.01031226e-07,3.767031e-07,2.851391e-08
2,2,0.6723403930664062,7.0847187e-12,9.78918e-12,0.9999956,4.3918258e-06,5.6529976e-09
0,0,0.6735324859619141,0.9998995,9.953763e-05,2.607723e-08,1.003031e-06,1.0524277e-09
0,0,0.6787776947021484,1.0,4.6861743e-08,1.6305245e-14,5.26567e-09,9.950058e-12
0,0,0.7061958312988281,0.9999573,4.2515407e-05,6.803411e-12,1.355214e-07,3.1114947e-10
0,0,0.6787776947021484,0.99989164,4.1484982e-05,1.5725514e-07,6.6766705e-05,2.6985331e-08
0,0,0.6759166717529297,0.99998605,4.802515e-06,6.7533136e-08,8.943506e-06,8.158662e-08
0,0,0.6833076477050781,0.999962,5.8992513e-09,1.5035087e-10,3.801647e-05,2.9795716e-08
0,0,0.6773471832275391,0.9999423,4.27581e-06,1.098914e-06,4.9508566e-05,2.8571374e-06
1,0,0.6730556488037109,0.9999536,4.6375982e-05,6.735616e-11,8.4204275e-11,1.0105561e-16
0,0,0.6732940673828125,0.99999404,2.5509303e-08,1.8391247e-06,4.013877e-06,7.928309e-08
0,0,0.6742477416992188,1.0,1.8401609e-09,3.9566878e-17,7.411847e-09,1.9778581e-15
0,0,0.6742477416992188,0.9999989,8.5942855e-07,1.6009226e-15,2.1606185e-07,2.0528943e-11
0,0,0.6761550903320312,1.0,1.5590428e-09,1.04957e-10,1.8843264e-10,2.3451657e-11
0,0,0.6756782531738281,0.99988866,7.7309036e-05,1.2090007e-07,3.3934954e-05,3.8502343e-08
0,0,0.6766319274902344,1.0,4.184041e-09,4.1619987e-14,3.851256e-09,4.070397e-10
0,0,0.6778240203857422,0.99989843,4.051143e-05,1.0832393e-05,4.7232435e-05,2.9556331e-06
0,0,0.7009506225585938,1.0,4.6065116e-09,2.0790076e-17,2.8438317e-12,1.3518145e-17
0,0,0.6761550903320312,0.9828326,2.2272848e-08,0.014992447,0.0021148343,5.9972066e-05
0,0,0.6756782531738281,0.9998023,0.00015660125,2.27214e-06,3.7762682e-05,1.1176672e-06
0,0,0.6721019744873047,0.99999917,7.1066665e-07,1.2430331e-09,1.2235354e-07,3.844202e-08
0,0,0.6740093231201172,1.0,1.0879333e-08,2.0358127e-16,2.490545e-09,1.4187847e-14
2,2,0.6728172302246094,2.5151788e-13,1.3619777e-07,0.9999833,1.6587373e-05,4.8270155e-12
3,3,0.6814002990722656,1.6412092e-05,3.2781077e-06,0.0016908114,0.9980356,0.00025390752
0,0,0.6763935089111328,0.99999094,1.4500252e-07,2.0549075e-11,8.921844e-06,1.1634479e-09
0,0,0.6740093231201172,0.9999988,2.0749987e-07,6.00549e-07,2.2249239e-07,9.986267e-08
0,0,0.6775856018066406,0.99999285,7.017851e-06,6.3189634e-13,1.469435e-07,2.4957731e-12
0,0,0.6766319274902344,1.0,1.06634854e-10,4.423238e-26,6.931685e-17,1.0061657e-20
0,0,0.6742477416992188,1.0,4.388504e-08,9.7617924e-24,3.0011022e-12,2.5378851e-16
0,0,0.6766319274902344,0.9999964,6.9019194e-07,1.2452848e-06,1.6645233e-06,5.205654e-09
0,0,0.6766319274902344,0.99999833,1.7062322e-06,1.0158847e-13,7.3649074e-09,3.063927e-12
0,0,0.7009506225585938,1.0,4.564151e-11,1.0260706e-10,4.388186e-08,7.8968665e-10
0,0,0.6740093231201172,0.99999595,3.4284024e-06,1.0828155e-12,6.767233e-07,4.5992474e-10
0,0,0.6718635559082031,0.99999917,8.395313e-07,3.325745e-15,1.39357965e-08,1.7317452e-13
0,0,0.6737709045410156,0.99978954,1.2063724e-07,3.6252055e-09,0.00021037193,3.0723615e-09
0,0,0.6763935089111328,0.9999999,1.2341172e-07,1.0319349e-10,3.4867224e-08,8.921909e-09
0,0,0.675201416015625,0.99999905,5.0899166e-07,7.436809e-08,2.626867e-07,7.146032e-08
0,0,0.6780624389648438,0.9999999,1.2168695e-07,7.016049e-15,1.7374141e-09,7.6846366e-14
0,1,0.6778240203857422,0.3794479,0.61852056,0.0017786883,0.00025292556,1.3049243e-09
1,1,0.6749629974365234,0.0041289525,0.9953134,4.8569123e-05,0.00050899206,9.04561e-09
0,0,0.6737709045410156,0.9965928,0.0033580232,3.95331e-07,4.8819056e-05,1.0654216e-08
2,2,0.6766319274902344,7.0875526e-06,1.0492681e-05,0.99996436,1.8171737e-05,2.110432e-09
0,0,0.6732940673828125,0.9999722,4.9206644e-08,8.663269e-07,2.6863368e-05,4.8279913e-09
0,0,0.6728172302246094,0.9999783,6.971193e-07,1.7138438e-09,2.1029478e-05,8.2108285e-09
2,2,0.6723403930664062,2.118052e-08,5.020809e-08,0.9999553,4.4554312e-05,7.1601946e-08
0,0,0.6997585296630859,0.9999579,2.2168526e-05,4.1500726e-08,1.9895062e-05,2.070256e-08
0,0,0.6797313690185547,0.9999479,4.9426475e-05,1.7369575e-11,2.676027e-06,1.1322698e-09
0,0,0.6761550903320312,0.99998105,1.4164585e-06,3.2331132e-10,1.7343073e-05,2.4893842e-07
0,0,0.67901611328125,0.99999964,4.5125117e-09,2.1474483e-07,1.3582682e-07,2.4397034e-10
0,0,0.6775856018066406,0.9999882,1.0717451e-05,2.7488736e-09,1.1185757e-06,1.1985873e-09
0,0,0.6771087646484375,1.0,4.8023203e-08,5.637855e-15,1.6249557e-09,2.8611805e-13
0,0,0.6749629974365234,0.9999993,4.1293225e-07,8.4193296e-16,3.257998e-07,2.100447e-12
0,0,0.6740093231201172,0.99999785,3.4160314e-07,1.02954215e-10,1.778859e-06,7.7966056e-10
0,0,0.6730556488037109,0.9999832,1.3393297e-05,2.8594964e-09,3.4724085e-06,1.0117236e-09
0,0,0.6749629974365234,1.0,1.6094865e-09,1.1476139e-13,4.6932584e-08,6.2615596e-14
0,0,0.6732940673828125,1.0,3.0520442e-09,3.2441478e-16,1.839781e-10,2.8153987e-13
0,0,0.6740093231201172,0.99999857,2.2467287e-08,1.5287286e-07,1.2453659e-06,1.6551967e-08
0,0,0.6754398345947266,0.9999851,1.4635568e-05,4.832248e-08,2.9547803e-07,2.1705088e-08
0,0,0.7030963897705078,0.9999529,7.9947563e-07,3.6256527e-09,4.1871972e-05,4.4416897e-06
0,0,0.6794929504394531,0.9999999,8.7439895e-09,3.2631378e-12,5.7764296e-08,6.115446e-11
2,2,0.6818771362304688,6.015472e-07,8.84643e-09,0.9986553,0.0013440311,3.150571e-08
0,0,0.6768703460693359,0.9975339,1.8355442e-07,3.311636e-07,0.0024646174,1.0015735e-06
0,0,0.6742477416992188,0.9994106,0.00040987594,9.108288e-05,8.7244654e-05,1.0912488e-06
0,0,0.6768703460693359,0.99857235,1.0890834e-08,1.1352898e-08,0.0014267934,7.911072e-07
0,0,0.6737709045410156,1.0,5.420935e-10,8.527627e-14,2.138675e-09,2.6435049e-10
0,0,0.6725788116455078,0.9999721,3.4955465e-07,7.1161144e-06,2.03776e-05,4.9918363e-08
0,0,0.67138671875,0.9999981,1.2962352e-08,6.359178e-08,1.7213285e-06,1.6978373e-09
0,0,0.6728172302246094,0.9999896,8.588433e-06,5.775381e-11,1.8117852e-06,2.2199564e-09
0,0,0.6780624389648438,0.99994826,4.827766e-05,1.2805689e-08,3.4057766e-06,4.221348e-08
0,0,0.6756782531738281,0.9998876,0.00010328509,2.5422153e-06,5.862279e-06,7.7182233e-07
0,0,0.6766319274902344,0.99999976,1.7586788e-07,8.817697e-09,7.249011e-08,2.673107e-08
0,0,0.6768703460693359,0.9999989,5.790232e-07,3.3059667e-08,4.6322785e-07,1.0938782e-09
0,0,0.705718994140625,0.99999714,3.7386974e-09,2.8852269e-06,2.4400537e-08,4.0357506e-11
0,0,0.6763935089111328,0.9999989,9.590472e-07,2.6901189e-14,9.477288e-08,2.4004337e-11
0,0,0.6747245788574219,0.99997854,2.0977206e-05,3.9937645e-12,4.4953433e-07,3.7464976e-11
0,0,0.6718635559082031,0.99999964,1.8733984e-07,9.189542e-09,1.514837e-07,1.2298783e-10
0,0,0.6728172302246094,0.9999944,1.2733777e-07,5.359515e-07,5.0519766e-06,4.1554262e-09
0,0,0.6716251373291016,0.99994564,2.5597054e-05,5.9819587e-07,2.7042865e-05,1.1024416e-06
0,0,0.6721019744873047,0.9983315,0.0016673604,4.0917839e-10,1.1102206e-06,1.3869236e-08
0,0,0.6949901580810547,0.9999999,1.10445505e-07,3.374032e-11,6.284755e-08,1.2733761e-09
0,0,0.6747245788574219,1.0,2.1772458e-08,9.306136e-13,6.2061325e-09,3.118347e-10
0,0,0.6763935089111328,0.9999862,1.2787816e-05,2.0338291e-08,1.0291837e-06,3.8704595e-09
0,0,0.6778240203857422,1.0,2.4170703e-09,2.3995217e-18,3.573411e-13,3.1065028e-18
0,0,0.6771087646484375,0.99999523,2.3495919e-07,8.9749275e-10,4.497985e-06,1.8991044e-09
0,0,0.6744861602783203,0.9999999,4.25398e-11,7.62813e-12,1.345247e-07,3.1884226e-12
0,0,0.6740093231201172,0.9999372,4.8832557e-05,1.932216e-06,1.1491695e-05,5.489977e-07
0,0,0.701904296875,0.9999937,6.310917e-07,1.7471308e-12,5.6930853e-06,7.333093e-10
0,0,0.6716251373291016,0.9999889,5.5215037e-07,3.7800593e-10,1.04765895e-05,2.2175721e-09
0,0,0.6735324859619141,0.99979943,2.6466893e-07,3.020146e-06,0.0001971887,9.107691e-08
0,0,0.6740093231201172,1.0,4.5048427e-09,2.3053259e-08,8.13535e-10,4.627474e-11
0,0,0.6773471832275391,1.0,2.0059239e-10,3.5536727e-13,1.832791e-09,3.7525444e-10
0,0,0.6742477416992188,1.0,2.8153416e-08,2.3430992e-08,2.7379816e-08,4.505572e-13
0,0,0.6754398345947266,1.0,1.4664859e-09,3.5404869e-13,2.1132526e-11,5.0796396e-15
2,2,0.675201416015625,1.543912e-21,1.4997894e-08,1.0,3.986155e-09,4.630669e-19
2,2,0.6761550903320312,1.268227e-18,1.512748e-25,1.0,1.0066639e-22,1.6218101e-16
2,2,0.6732940673828125,1.01497734e-22,1.3323936e-09,1.0,5.0885185e-09,4.4594396e-20
0,0,0.6804466247558594,1.0,9.510752e-10,1.9836046e-11,4.9922136e-08,1.8139007e-12
0,0,0.6723403930664062,1.0,1.5131794e-08,5.1356125e-13,1.1217889e-09,1.258173e-10
0,0,0.6721019744873047,0.99999857,9.06016e-07,3.984446e-09,5.090026e-07,7.9432316e-10
0,0,0.6976127624511719,0.99988425,2.451648e-06,6.756547e-05,4.0395007e-05,5.3932317e-06
0,0,0.6740093231201172,0.9999958,3.2293312e-06,2.1835196e-09,9.1854423e-07,4.3467643e-09
0,0,0.6766319274902344,1.0,8.695899e-11,6.776294e-13,3.7697565e-09,2.1524933e-14
0,0,0.6754398345947266,1.0,1.9291435e-11,3.091271e-22,5.803674e-16,1.7653252e-18
0,0,0.6747245788574219,0.9999521,3.7367162e-10,8.586333e-10,4.7894562e-05,1.424828e-08
2,2,0.6763935089111328,1.808927e-18,1.7296235e-10,1.0,1.9162696e-09,1.9140287e-18
2,2,0.6768703460693359,3.71223e-07,3.6022652e-10,0.9996542,0.00034427454,1.1732579e-06
0,0,0.6730556488037109,0.99996424,2.6667274e-05,1.4532931e-06,7.488446e-06,1.7363998e-07
0,0,0.675201416015625,1.0,5.305473e-16,2.458252e-11,1.0501759e-08,7.2230016e-14
0,0,0.6735324859619141,0.9989128,0.0007214787,1.3087173e-07,0.00036557793,3.6071437e-08
0,0,0.6730556488037109,0.99999976,2.4943787e-07,1.5262807e-12,6.5456446e-10,1.3357544e-13
0,0,0.6721019744873047,0.9999838,1.6264148e-05,5.344153e-12,7.340721e-09,6.424872e-12
0,0,0.6718635559082031,0.99922466,0.0007724167,1.967283e-06,9.05036e-07,2.7951422e-10
0,0,0.6778240203857422,0.99994016,2.3127706e-05,1.8503047e-07,3.642245e-05,3.1652142e-08
0,0,0.7143020629882812,0.9999906,6.4684878e-06,3.030002e-10,2.8956192e-06,2.128741e-09
0,0,0.6806850433349609,0.99996173,2.272132e-06,3.0603886e-07,3.568038e-05,4.2256424e-08
0,0,0.6787776947021484,0.99964476,1.7749768e-07,0.00013706146,0.00017484196,4.3189837e-05
0,0,0.6775856018066406,1.0,1.0074739e-08,1.5042313e-10,1.8334834e-09,5.4367275e-13
0,0,0.6744861602783203,0.9999876,6.3263053e-07,1.5146887e-11,1.1794238e-05,9.1083363e-10
0,0,0.67138671875,1.0,2.6219942e-09,3.316588e-15,1.683449e-09,2.4438736e-13
2,2,0.6742477416992188,1.1127409e-13,2.2090448e-05,0.99997544,2.4543326e-06,6.842305e-11
0,0,0.6728172302246094,0.99999905,3.064742e-08,2.7288593e-07,6.257141e-07,3.1740988e-09
0,0,0.6721019744873047,1.0,4.6902357e-11,3.4869426e-19,7.123635e-13,9.463369e-16
0,0,0.6730556488037109,0.9999893,7.534178e-06,1.9074318e-09,3.210416e-06,1.5262065e-08
0,0,0.6766319274902344,0.99994123,3.2614957e-05,1.0296883e-06,2.3892399e-05,1.2155925e-06
0,0,0.6742477416992188,0.99993324,4.692187e-05,1.6717197e-06,1.8111501e-05,7.735539e-09
0,0,0.6761550903320312,0.99999833,9.578391e-07,3.613165e-08,4.8983446e-07,2.533919e-07
0,0,0.6778240203857422,0.9999968,7.106632e-10,7.893701e-12,3.2131356e-06,2.5375666e-09
0,0,0.7047653198242188,0.99988544,0.00011448403,5.709502e-12,3.018635e-08,8.627052e-12
2,2,0.6775856018066406,5.139527e-16,3.7575187e-09,0.99999857,1.4164171e-06,2.7031229e-12
0,0,0.6735324859619141,0.9999995,5.281621e-07,2.1543759e-12,1.3491277e-09,1.6133513e-10
0,0,0.6835460662841797,1.0,5.254581e-10,1.1672994e-09,5.4613317e-08,9.0491403e-10
0,0,0.6737709045410156,0.9999999,3.5570566e-09,4.021798e-08,8.4361986e-08,8.426424e-11
0,0,0.6718635559082031,0.99998784,1.0149494e-05,4.5455736e-11,2.0227913e-06,2.261877e-09
0,0,0.6728172302246094,0.99999964,6.5729586e-09,4.021258e-07,3.87777e-08,1.1037361e-08
0,0,0.6778240203857422,0.9999987,1.0743654e-06,1.3487168e-10,1.8614948e-07,1.1288899e-09
0,0,0.6747245788574219,0.99999833,7.460135e-07,1.1891024e-08,5.36512e-07,3.250983e-07
0,0,0.6742477416992188,0.9998939,5.0141927e-05,3.154953e-05,1.3464764e-05,1.0820574e-05
0,0,0.6732940673828125,0.9999999,6.211914e-08,1.8180765e-21,9.233529e-11,6.3339027e-15
0,0,0.6771087646484375,0.9999995,1.2002722e-07,1.337999e-08,3.008929e-07,1.0417265e-08
0,0,0.6740093231201172,0.99998975,1.5575742e-08,1.0174823e-08,9.823006e-06,3.8895263e-07
0,0,0.67138671875,0.99997807,2.0784144e-06,6.5881704e-06,1.1585393e-05,1.6574547e-06
0,0,0.6749629974365234,0.99999917,2.0051372e-07,2.737537e-07,3.4208216e-07,3.2961953e-08
0,0,0.6730556488037109,0.99998915,2.8327333e-06,7.6619955e-08,7.955522e-06,5.1081866e-08
0,0,0.6716251373291016,1.0,5.5075468e-08,1.0866571e-17,4.7163115e-12,3.2019258e-17
0,0,0.6721019744873047,0.9993629,1.7688873e-07,0.0006366294,2.8438708e-07,1.9782183e-09
0,0,0.6787776947021484,0.9999995,5.0250577e-07,2.3655931e-14,6.275382e-09,2.3755698e-12
0,0,0.6761550903320312,0.9875386,0.012416389,2.3682554e-05,2.1403934e-05,1.8246171e-09
0,0,0.6737709045410156,0.9999988,2.626661e-09,1.2067084e-06,3.6001786e-08,7.974307e-10
0,0,0.6742477416992188,0.9999784,1.4898802e-05,5.949546e-08,6.5375702e-06,1.5706914e-07
0,0,0.6756782531738281,0.9999931,6.951396e-06,4.9447228e-11,2.2175279e-08,5.861404e-12
0,0,0.6747245788574219,0.9999937,5.19671e-06,2.2230884e-09,1.0993983e-06,1.228233e-09
0,0,0.6716251373291016,0.99599755,0.0039017943,2.6596326e-06,9.789282e-05,1.6172685e-07
0,0,0.6716251373291016,0.99808,0.0017306193,4.7771055e-06,0.00018444048,6.819271e-08
1,1,0.6718635559082031,0.0017884691,0.99770975,0.00044223893,5.9566704e-05,1.0941107e-09
0,0,0.6983280181884766,1.0,1.0687415e-09,3.7997766e-22,1.164454e-15,7.6409723e-20
0,0,0.6759166717529297,0.9999771,2.1849932e-05,3.4382275e-09,9.828143e-07,2.5062465e-09
3,2,0.6783008575439453,1.0483394e-17,2.2093535e-14,0.9999976,2.4267808e-06,9.1664576e-15
0,0,0.6759166717529297,0.9999999,2.1491237e-08,7.297778e-11,5.122369e-08,8.407371e-14
2,2,0.6732940673828125,3.230901e-09,3.0140505e-15,0.99996746,3.2535103e-05,1.3297994e-08
2,1,0.6742477416992188,0.12630793,0.63107324,0.21201406,0.030601632,3.151423e-06
0,0,0.6754398345947266,1.0,6.3832894e-15,5.076559e-23,3.970808e-18,5.6189675e-20
0,0,0.6730556488037109,0.9999833,3.9026304e-08,6.1115966e-09,1.4994521e-05,1.7106674e-06
0,0,0.6723403930664062,0.9990345,0.000696845,8.044933e-07,0.00026728614,4.6787864e-07
0,0,0.6730556488037109,0.9999944,3.724275e-07,3.278439e-06,1.5652547e-06,3.4682623e-07
0,0,0.6728172302246094,0.99938595,9.530791e-08,5.267649e-05,0.0005540497,7.2571747e-06
0,0,0.6728172302246094,0.99980253,0.00017535419,3.960031e-08,2.1876745e-05,2.736518e-07
0,0,0.6725788116455078,1.0,1.369314e-08,9.077901e-19,9.123054e-14,1.9633048e-15
0,0,0.6766319274902344,0.9999094,2.948041e-05,2.479161e-05,3.6277434e-05,2.732871e-08
0,0,0.7030963897705078,1.0,9.644163e-09,2.1931843e-23,3.965743e-15,1.1564391e-19
0,0,0.6761550903320312,0.9999999,7.638348e-09,1.7549797e-07,2.6842814e-08,4.7573083e-09
0,0,0.6759166717529297,0.99997807,2.190353e-05,2.8144954e-12,4.9492225e-08,6.31089e-11
0,0,0.6778240203857422,0.98116976,0.017670304,0.0011032618,5.667137e-05,8.434914e-09
0,0,0.6740093231201172,0.9998809,1.3671213e-07,1.269242e-07,0.000113308255,5.521869e-06
0,0,0.6742477416992188,0.9999709,2.9063423e-05,6.241504e-13,3.416413e-08,2.2653594e-11
2,2,0.6728172302246094,5.3456406e-22,1.5487587e-16,1.0,6.5250404e-14,6.4975976e-24
0,0,0.6735324859619141,0.9999919,6.126136e-06,1.4592983e-08,1.8173822e-06,1.407505e-07
0,0,0.6725788116455078,0.9999995,6.966359e-08,1.6909987e-12,3.901553e-07,6.063561e-11
0,0,0.6728172302246094,0.9999937,5.83321e-13,6.1537207e-06,1.5724403e-07,3.4574918e-10
0,0,0.6780624389648438,0.99999595,4.064183e-06,1.567283e-17,4.0038567e-12,8.657092e-14
0,0,0.6766319274902344,0.9999969,9.690702e-07,1.042355e-06,1.0356863e-06,4.0336857e-08
0,0,0.6754398345947266,0.9999999,9.3206175e-08,4.3910625e-17,3.9000585e-09,1.1518043e-13
0,0,0.6759166717529297,0.9999598,2.4588991e-05,6.544279e-08,1.5422804e-05,1.2830359e-08
0,0,0.7071495056152344,0.99999976,1.9781023e-08,1.1971447e-07,5.0329795e-08,3.9347005e-11
0,0,0.6804466247558594,0.99999785,2.110941e-06,1.2386694e-13,5.501747e-09,7.2209305e-15
0,0,0.6737709045410156,1.0,3.6749224e-09,1.1246263e-15,8.7643025e-11,5.970789e-14
2,2,0.6718635559082031,1.5917581e-07,1.8731166e-11,0.9998816,0.000117746764,5.0557463e-07
0,0,0.6723403930664062,0.99995005,4.985083e-05,1.8955227e-13,3.794175e-08,1.2500558e-11
0,0,0.6716251373291016,0.99999917,4.8078226e-07,2.0519389e-08,2.0621785e-07,7.4111796e-08
0,0,0.6723403930664062,0.9999653,3.4451517e-05,4.1633874e-10,2.5565816e-07,9.434503e-10
0,0,0.6771087646484375,0.99997044,1.1666712e-08,2.2232899e-10,2.95871e-05,1.39563285e-08
0,0,0.6787776947021484,0.99999833,1.6593026e-06,1.3514659e-11,3.6806703e-08,5.2560782e-09
0,0,0.6759166717529297,0.99999714,2.4950587e-06,6.4570067e-13,3.07835e-07,1.5839935e-10
2,2,0.6723403930664062,1.2917688e-21,3.8217763e-07,0.99999964,9.883491e-09,5.0348323e-19
0,0,0.6768703460693359,0.99999976,2.098261e-07,1.1762094e-21,4.0893446e-14,9.4024e-18
0,0,0.6754398345947266,0.7195791,0.09724556,0.18309875,7.655614e-05,1.7338148e-09
0,0,0.6992816925048828,0.9999151,8.261144e-05,3.8203888e-11,2.1996777e-06,3.9981338e-10
2,2,0.6737709045410156,0.07383075,0.00012194728,0.9219895,0.003999785,5.8059704e-05
0,0,0.6728172302246094,0.99999523,4.7984295e-06,5.1773013e-12,4.96058e-09,5.2567655e-12
0,0,0.6799697875976562,0.99962986,2.7327914e-07,1.1566688e-07,0.00036967933,2.8369996e-08
0,0,0.6725788116455078,0.99999905,2.8478516e-08,4.933154e-08,9.323913e-07,1.1746121e-10
1,0,0.6763935089111328,0.98277295,0.004269665,0.0026033353,0.010167854,0.00018616344
2,2,0.6766319274902344,2.4467805e-11,7.049134e-12,0.99998415,1.5814774e-05,1.1370705e-08
0,0,0.6761550903320312,0.99997747,2.246072e-05,2.3970437e-10,5.4515404e-08,4.0308628e-11
0,0,0.6759166717529297,0.9998338,0.00016446471,4.3495055e-11,1.6821609e-06,2.747515e-10
0,0,0.6775856018066406,0.9999999,1.653123e-08,3.4457308e-09,9.0686044e-08,2.3411144e-09
0,0,0.6742477416992188,1.0,2.25927e-09,1.4383766e-09,6.9382167e-10,1.2011474e-11
0,0,0.6804466247558594,0.9999931,4.8696575e-06,3.5856622e-09,2.0547857e-06,7.2275865e-09
0,0,0.6737709045410156,0.9968046,0.0007605658,6.898305e-05,0.0023629107,2.837972e-06
0,0,0.6723403930664062,0.99998367,1.1226922e-05,2.3752959e-07,3.1581606e-06,1.6474256e-06
0,0,0.7035732269287109,0.9999988,1.1531449e-08,2.784755e-10,1.1548937e-06,2.6746817e-11
0,0,0.6744861602783203,0.9999404,5.0766266e-05,3.4837612e-07,8.443199e-06,3.9181733e-10
2,2,0.6768703460693359,9.1565494e-07,6.409523e-05,0.9992632,0.0006640904,7.636904e-06
0,0,0.6773471832275391,1.0,1.1090147e-11,1.37456635e-11,2.4235054e-09,2.85807e-14
0,0,0.6761550903320312,0.99674606,4.797353e-07,0.0031867686,6.670758e-05,2.7845337e-08
0,0,0.6804466247558594,1.0,9.612375e-09,4.182436e-21,7.290307e-15,1.2152822e-16
0,0,0.6773471832275391,1.0,6.979536e-10,8.2565075e-12,1.0603881e-09,1.9050603e-12
0,0,0.6763935089111328,0.9999696,4.7232916e-07,1.1682968e-10,2.9976749e-05,4.5828213e-10
0,0,0.6737709045410156,0.99987245,0.00012633328,1.800182e-10,1.2446781e-06,3.0117028e-10
0,0,0.6723403930664062,0.9999968,2.2412482e-06,2.4137606e-08,7.963086e-07,2.628277e-07
0,0,0.6740093231201172,0.99996233,2.4551164e-05,2.1432987e-07,1.2507773e-05,3.461935e-07
0,0,0.6737709045410156,1.0,1.6033074e-08,3.9577397e-08,2.4262528e-09,2.8356527e-12
0,0,0.6744861602783203,0.99999976,5.8152196e-08,2.2872277e-12,1.3043393e-07,7.8761845e-13
0,0,0.6771087646484375,1.0,7.650888e-09,1.2761782e-15,1.0832573e-09,1.3438069e-13
0,0,0.7064342498779297,1.0,3.2103554e-08,2.2957898e-09,2.1878654e-08,8.477957e-09
0,0,0.6778240203857422,0.9841105,9.808535e-05,0.0039592516,0.010673309,0.0011587805
0,0,0.6747245788574219,0.9999995,4.9554708e-11,2.8694236e-11,4.741567e-07,5.631133e-12
0,0,0.6761550903320312,0.9999819,3.9604656e-10,7.574784e-12,1.8059724e-05,7.4411144e-10
0,0,0.6744861602783203,0.9999993,4.242828e-07,2.2971371e-09,3.1112145e-07,7.45282e-10
0,0,0.6749629974365234,0.99999976,2.0727084e-07,6.560768e-14,2.4625466e-10,1.8845674e-13
0,0,0.6749629974365234,0.9999366,6.085176e-05,6.616722e-08,2.4333738e-06,8.906893e-09
2,2,0.6723403930664062,3.6646958e-07,3.7550417e-05,0.9985904,0.0013714894,8.0367364e-08
0,0,0.6837844848632812,0.99997795,2.2050765e-05,7.87221e-14,3.0837737e-09,1.4942931e-13
0,0,0.6749629974365234,1.0,2.4085252e-12,2.993065e-12,7.572993e-10,1.5814258e-14
0,0,0.6742477416992188,0.99983716,0.00014625164,7.929663e-09,1.6231581e-05,3.919864e-07
0,0,0.6792545318603516,0.9998642,0.00012207114,1.5088659e-06,1.0735168e-05,1.4870025e-06
0,0,0.6775856018066406,0.9999813,1.6457738e-05,8.0763215e-07,1.0159388e-06,3.670451e-07
0,0,0.6966590881347656,0.99999607,1.1531323e-07,1.4858957e-06,2.3379275e-06,3.0556855e-08
0,0,0.6771087646484375,0.99999917,8.3637156e-07,4.3862612e-14,5.6945737e-09,3.876821e-12
0,0,0.6749629974365234,0.9990765,0.0006583869,0.00013426604,0.00012998254,9.832353e-07
0,0,0.6740093231201172,0.99999785,5.658588e-07,4.9350978e-11,1.5961656e-06,2.2623256e-10
0,0,0.6744861602783203,1.0,2.0455907e-08,2.9965744e-22,2.5027198e-14,6.430722e-17
2,2,0.6742477416992188,4.1113725e-16,2.6427536e-14,1.0,1.6404993e-08,3.78464e-13
0,0,0.6740093231201172,0.9999987,1.6640862e-11,1.195728e-06,1.0220237e-07,5.198698e-10
0,0,0.6749629974365234,0.9999993,1.8062215e-08,6.470746e-12,7.199427e-07,2.7400651e-11
0,0,0.6763935089111328,1.0,2.1559103e-08,2.0178818e-17,4.5101488e-12,6.564462e-14
2,2,0.6775856018066406,0.14864747,0.0001603376,0.8511829,9.298891e-06,2.2793868e-08
0,0,0.6754398345947266,0.9999999,3.2939102e-08,1.8102155e-09,5.9205576e-08,2.22963e-08
0,0,0.6778240203857422,0.9999906,8.666787e-06,1.02734505e-11,7.958072e-07,5.3653876e-10
0,0,0.6806850433349609,0.99999976,8.370594e-08,1.04805096e-07,1.7677701e-08,9.838806e-12
0,0,0.6763935089111328,0.9999994,8.928579e-09,5.104117e-07,1.01584035e-07,1.528226e-08
0,0,0.7040500640869141,0.999997,2.830552e-06,4.5866005e-11,1.2726368e-07,1.9237152e-10
0,0,0.6763935089111328,0.9996408,0.00023352433,0.000110319605,1.4103506e-05,1.2339194e-06
0,0,0.6742477416992188,1.0,3.7171795e-08,7.342819e-19,1.8543043e-12,6.2193994e-18
0,0,0.6730556488037109,0.9999852,5.647419e-06,1.4123037e-09,9.060459e-06,1.0854222e-07
0,0,0.6759166717529297,0.99971527,2.084861e-06,0.0002749221,7.5139983e-06,1.198586e-07
0,0,0.6754398345947266,0.9999999,7.009546e-08,1.3715331e-23,6.131713e-12,5.678126e-16
0,0,0.6778240203857422,0.9997495,0.00017796321,9.6200026e-08,7.221184e-05,2.6659282e-07
0,0,0.6823539733886719,0.9850168,0.0076220287,0.006981585,0.00037882093,7.0242527e-07
1,1,0.675201416015625,0.0014180318,0.9683745,0.026210202,0.0039970176,3.4480504e-07
0,0,0.6749629974365234,0.99999905,4.532204e-08,8.824995e-12,9.025221e-07,1.578092e-10
2,2,0.6740093231201172,0.0010657884,3.7964694e-15,0.99892044,1.385451e-05,4.7834164e-10
0,0,0.6732940673828125,0.9999999,2.2910127e-09,1.0170011e-09,1.3055578e-07,1.1356097e-09
0,0,0.6775856018066406,0.99999976,2.3565615e-07,7.0493317e-10,8.497852e-09,3.2714066e-12
0,0,0.6744861602783203,0.9999888,6.344332e-10,1.1228993e-05,2.216943e-08,2.0342433e-10
0,0,0.7035732269287109,0.9999337,5.4437427e-10,6.438533e-05,1.9269132e-06,5.7179705e-09
0,0,0.6821155548095703,0.99999833,1.6527154e-06,7.3371e-14,1.1726538e-08,8.591143e-12
0,0,0.6763935089111328,0.99982506,0.00012850072,9.549185e-06,3.350783e-05,3.4125515e-06
0,0,0.6773471832275391,0.9999888,5.3323397e-06,9.186042e-09,5.817164e-06,1.0105399e-08
0,0,0.6766319274902344,1.0,1.5606701e-09,4.2348646e-16,2.6351622e-11,1.913821e-14
0,0,0.6744861602783203,0.99999976,2.2175648e-07,1.333602e-15,3.1496242e-08,8.729256e-13
0,0,0.6747245788574219,0.99995387,3.595459e-05,3.409112e-07,7.551996e-06,2.2414727e-06
0,0,0.6756782531738281,0.99998987,3.6831816e-06,1.8798399e-06,4.0334576e-06,4.6710787e-07
0,0,0.6732940673828125,0.9999957,4.2947645e-06,2.1447603e-13,5.19507e-08,9.007076e-12
2,2,0.6721019744873047,3.6124274e-07,3.0455694e-10,0.9988483,0.0011489083,2.3653142e-06
2,2,0.6747245788574219,1.3713762e-12,1.1503289e-06,0.99992573,7.3081785e-05,1.720092e-11
0,0,0.6721019744873047,0.9999914,5.2789846e-07,5.7744387e-09,8.072989e-06,1.3268763e-09
3,3,0.6766319274902344,0.12311938,0.00035207462,0.00030417697,0.8761717,5.266099e-05
0,0,0.7035732269287109,1.0,3.177132e-08,2.4545639e-23,5.8468084e-15,1.4830016e-18
0,0,0.6794929504394531,1.0,8.2245616e-10,3.80612e-20,3.4392418e-14,5.2970947e-18
0,0,0.6783008575439453,0.99999964,7.907871e-09,8.020893e-08,2.1551624e-07,1.8160699e-09
0,0,0.6763935089111328,0.9999925,3.7340144e-06,4.804284e-07,2.624425e-06,6.605632e-07
0,0,0.6716251373291016,0.99998033,1.959868e-05,3.197093e-12,1.1791881e-07,2.1151868e-11
1,0,0.6730556488037109,0.9989065,0.0010685703,1.7060263e-08,2.3143672e-05,1.7537388e-06
0,0,0.6737709045410156,0.9999988,1.3448876e-09,1.1756924e-06,3.2674052e-09,3.1540856e-13
2,2,0.6728172302246094,5.7218754e-06,2.3151151e-11,0.9999931,1.2086317e-06,2.2386988e-09
0,0,0.6709098815917969,0.9922644,0.004157974,8.621139e-05,0.0034302238,6.120157e-05
0,0,0.6737709045410156,0.9999876,9.480987e-06,4.1308947e-08,2.5259242e-06,3.489838e-07
0,0,0.6766319274902344,0.9998815,9.9592435e-05,1.8013902e-06,1.5669635e-05,1.4275606e-06
0,0,0.6744861602783203,1.0,4.3258862e-11,2.3934233e-11,5.8379496e-11,3.3154445e-14
0,0,0.6773471832275391,0.9999999,1.3299383e-07,3.694443e-18,2.0631063e-11,3.1631285e-15
0,0,0.6778240203857422,1.0,4.7133417e-09,3.5654477e-08,9.712566e-11,3.3440668e-15
0,0,0.7157325744628906,0.9995005,0.00036153622,4.746481e-06,0.00013022288,3.0170786e-06
0,0,0.6759166717529297,0.9999008,9.409533e-05,2.7351735e-08,4.9855344e-06,6.537293e-08
0,0,0.6737709045410156,0.99999845,1.4905545e-06,3.096333e-12,2.5894282e-08,9.569434e-11
0,0,0.6725788116455078,0.99999225,7.755213e-06,3.757856e-15,4.357798e-09,1.8396244e-12
0,0,0.6730556488037109,0.99994063,1.2797474e-06,5.31265e-05,4.0973478e-06,7.820909e-07
0,0,0.6728172302246094,0.9999988,1.271666e-07,2.0392237e-11,1.0878542e-06,1.4702081e-10
0,0,0.6728172302246094,0.999956,3.341871e-05,8.502526e-08,1.0094835e-05,3.1546372e-07
0,0,0.6768703460693359,1.0,2.6385698e-09,1.7253394e-26,3.771685e-16,1.9760807e-20
2,2,0.6735324859619141,1.9364484e-06,5.6679616e-11,0.99999654,1.5785519e-06,5.3520405e-10
0,0,0.6763935089111328,1.0,7.0792088e-09,2.8130119e-08,3.395639e-08,2.7265007e-12
0,0,0.6773471832275391,0.99996245,3.596224e-05,3.614612e-09,1.5362372e-06,7.835047e-09
0,0,0.6763935089111328,1.0,8.3818674e-10,2.5621936e-13,2.928102e-11,1.380383e-15
0,0,0.6744861602783203,0.9999999,2.6367067e-10,2.3169395e-13,9.242599e-08,1.4645582e-11
0,0,0.6742477416992188,0.9994197,5.2081927e-05,0.0005188306,8.730774e-06,6.7420876e-07
2,2,0.698089599609375,5.8049585e-12,3.5496782e-08,1.0,1.1615665e-10,4.4184893e-15
0,0,0.6728172302246094,0.9999999,6.026688e-08,1.18119845e-17,1.8635803e-11,2.7674466e-15
0,0,0.6728172302246094,0.9999968,3.157407e-06,1.7196703e-14,3.153107e-08,4.4317163e-12
0,0,0.6721019744873047,0.99999905,3.2557792e-09,1.4560716e-09,9.845583e-07,3.982425e-10
0,0,0.6873607635498047,0.9998909,0.000106225074,3.2890548e-09,2.7892495e-06,3.3021527e-10
0,0,0.6766319274902344,0.9999993,6.978716e-07,1.1415785e-10,4.0340417e-08,5.3109646e-09
0,0,0.6740093231201172,0.99994135,5.8567017e-05,8.520113e-12,3.8691514e-08,2.5421706e-11
0,0,0.6763935089111328,0.9998983,8.3512515e-07,0.00010007854,7.1201475e-07,7.4187226e-11
0,0,0.6756782531738281,0.9999912,1.4522232e-07,5.7849625e-10,8.700406e-06,9.814328e-10
0,0,0.6754398345947266,1.0,3.8637218e-08,5.2740745e-16,1.9787858e-08,9.229118e-13
0,0,0.6740093231201172,0.9999081,9.073824e-05,1.6462018e-10,1.1462602e-06,2.4308375e-09
0,0,0.6730556488037109,1.0,1.8120051e-09,6.372803e-15,1.2197493e-10,5.14162e-13
0,0,0.6725788116455078,0.9999956,7.1083215e-09,4.6426822e-09,4.407741e-06,7.5899353e-10
1,0,0.7009506225585938,0.8348234,0.16517647,1.344706e-13,1.17816725e-07,8.064348e-12
0,0,0.6754398345947266,0.99994993,4.820891e-05,1.1212616e-10,1.8451271e-06,3.8496752e-09
0,0,0.6771087646484375,0.99999404,1.8123324e-06,6.1226444e-08,3.2673822e-06,7.6414364e-07
0,0,0.6763935089111328,1.0,1.1929117e-08,6.8914317e-15,1.9049407e-08,6.723884e-12
1,1,0.6754398345947266,0.00036435766,0.9995004,2.8580533e-05,0.00010664341,3.3739436e-10
0,0,0.6785392761230469,0.99999785,2.0911962e-06,1.6724648e-09,8.1541536e-08,1.1133772e-09
0,0,0.6754398345947266,0.9993212,0.00035242722,0.0002954905,3.0904812e-05,2.2529067e-08
0,0,0.6732940673828125,0.99983,1.4403435e-07,0.00016966467,1.9020803e-07,1.7850496e-08
0,0,0.6730556488037109,0.9999937,6.0343746e-06,3.616059e-11,2.381421e-07,6.2229333e-10
0,0,0.6744861602783203,0.9999994,4.9075754e-07,1.5208736e-14,4.8890833e-08,1.0323197e-11
0,0,0.6730556488037109,0.9999994,5.948454e-07,4.536929e-19,4.344525e-13,5.0967316e-17
0,0,0.6718635559082031,1.0,2.1659598e-11,5.137497e-08,1.1446307e-08,7.617317e-11
0,0,0.6737709045410156,0.9999372,3.9721454e-05,6.778038e-06,1.6029322e-05,2.5419908e-07
1,0,0.6783008575439453,0.9997267,0.0002731403,2.1366655e-11,1.7063732e-07,1.09891596e-10
0,0,0.705718994140625,0.99728096,0.001028096,0.0016555159,3.4111556e-05,1.3568089e-06
0,0,0.6759166717529297,0.9993801,0.00011502859,1.4846087e-07,0.0005042885,4.7001083e-07
0,0,0.6783008575439453,0.999948,3.6120826e-05,8.5888007e-07,1.3639665e-05,1.4599234e-06
0,0,0.6747245788574219,0.99930286,0.0006385561,3.4567583e-06,5.4898293e-05,2.1676973e-07
0,0,0.6763935089111328,0.99990976,1.5131461e-05,1.1840116e-06,7.376965e-05,1.643493e-07
0,0,0.6737709045410156,0.9999963,3.0794472e-06,3.873765e-12,6.47165e-07,4.8034515e-10
0,0,0.6732940673828125,0.99999964,3.9331175e-07,1.5182001e-16,2.1345592e-08,6.82229e-13
2,2,0.6718635559082031,1.15713716e-10,1.7833915e-17,0.9999999,1.784132e-07,1.1037821e-09
0,0,0.6742477416992188,0.9999896,7.752206e-06,4.7268443e-08,2.3497414e-06,2.911812e-07
3,3,0.6737709045410156,0.0004302551,3.6320523e-06,0.00019384307,0.99855167,0.00082052255
0,0,0.6768703460693359,0.99999917,4.9014e-07,3.4405022e-12,3.6035135e-07,8.486904e-11
0,0,0.6754398345947266,0.9999919,6.7413853e-06,3.5978488e-11,1.3297698e-06,1.4890136e-09
0,0,0.6735324859619141,0.9999987,3.449722e-07,1.30603e-10,9.816515e-07,4.834715e-10
0,0,0.67901611328125,0.99991024,2.5118566e-06,1.504658e-07,8.712551e-05,2.2710482e-08
0,0,0.7216930389404297,0.9999863,5.045681e-06,2.1543475e-08,8.55528e-06,1.1943519e-07
0,0,0.6771087646484375,1.0,5.835559e-10,3.768365e-11,3.8479982e-08,3.036228e-09
0,0,0.6747245788574219,0.99998856,1.1317459e-05,4.2384263e-13,1.09773886e-07,3.7163866e-11
0,0,0.6735324859619141,0.9996959,0.00019178925,2.8773835e-05,7.88848e-05,4.710536e-06
0,0,0.6725788116455078,0.99961555,1.2425671e-05,0.00016662141,0.00019276877,1.2685012e-05
0,0,0.6728172302246094,1.0,4.455798e-10,1.2402579e-10,3.3249478e-08,4.68956e-13
0,0,0.6732940673828125,1.0,4.4332022e-08,7.649045e-14,4.9310438e-11,7.1031744e-13
0,0,0.6775856018066406,0.99998915,1.0239906e-05,3.389135e-10,5.320625e-07,1.0449899e-07
0,0,0.6780624389648438,1.0,1.6109107e-10,2.0486687e-22,6.9885597e-16,5.1193133e-19
0,0,0.6756782531738281,0.9999937,1.0828647e-06,3.9951206e-12,5.222993e-06,3.4702033e-10
0,0,0.6756782531738281,0.9999999,1.1530905e-07,3.4983055e-20,1.2921755e-10,3.4744413e-15
0,0,0.6761550903320312,0.9999995,2.3796414e-07,9.960023e-12,2.1943433e-07,5.6996227e-11
0,0,0.6761550903320312,0.9998883,0.0001113821,8.7756295e-12,2.6111044e-07,5.2557875e-10
0,0,0.7002353668212891,0.99999917,8.757253e-07,1.7669031e-15,9.243779e-11,4.172507e-12
0,0,0.6742477416992188,0.9999852,1.2222949e-05,1.7263919e-09,2.588856e-06,8.8569213e-10
0,0,0.6723403930664062,0.999954,4.036878e-05,1.4055583e-08,5.6873996e-06,1.7107583e-09
0,0,0.6737709045410156,0.99999344,2.3564062e-06,3.578427e-06,6.2472975e-07,5.0348985e-11
0,0,0.6744861602783203,0.9999914,2.5355491e-06,3.861847e-08,6.067218e-06,3.9070784e-08
0,0,0.6775856018066406,0.9999826,1.3291179e-05,1.4458028e-07,3.5983837e-06,3.13302e-07
1,1,0.6749629974365234,0.029912509,0.9695342,0.00041463276,0.00013862476,5.8013785e-09
0,0,0.6749629974365234,0.99996746,3.2055505e-05,2.12705e-11,4.402742e-07,3.4960996e-11
0,0,0.6773471832275391,0.9999999,7.367438e-08,7.522209e-16,1.9065935e-09,9.18045e-13
0,0,0.6773471832275391,0.99999905,4.535221e-12,9.4091473e-07,2.1109335e-08,1.10317026e-10
0,0,0.8525848388671875,0.9999989,8.1427395e-08,4.013866e-10,8.4557274e-07,1.3000933e-07
0,0,0.6792545318603516,1.0,5.788962e-11,1.2287293e-11,5.526514e-10,6.992076e-13
0,0,0.6747245788574219,1.0,3.3166756e-08,3.2941653e-25,1.547295e-15,6.5146894e-19
0,0,0.6744861602783203,0.99993134,6.685862e-05,1.8524042e-10,1.833904e-06,1.4842847e-09
0,0,0.7045269012451172,0.99999845,1.2967172e-09,9.048734e-09,1.5681044e-06,2.5721186e-10
2,2,0.6749629974365234,1.6478807e-09,4.8743005e-23,1.0,5.627987e-17,3.4867125e-21
0,0,0.6749629974365234,1.0,6.625227e-11,3.1340694e-11,6.395517e-10,3.8214307e-13
0,0,0.6783008575439453,0.99997115,4.8914408e-06,3.1983937e-08,2.370582e-05,2.352607e-07
0,0,0.6768703460693359,0.9998839,5.3223386e-05,2.4686366e-07,6.2626044e-05,5.0514178e-08
0,0,0.6756782531738281,0.9999999,5.9886794e-08,3.6566103e-09,1.7998227e-08,5.5900715e-09
0,0,0.6749629974365234,1.0,3.2259446e-09,1.2745119e-19,2.4524084e-14,2.0750391e-16
3,3,0.6744861602783203,0.00024724207,2.0974518e-08,1.1462587e-05,0.99973756,3.6979864e-06
0,0,0.6735324859619141,1.0,2.2346029e-08,2.900927e-09,2.6529685e-08,7.12861e-09
1,1,0.6721019744873047,0.0014191638,0.9985165,1.1995499e-05,5.2348187e-05,5.618186e-11
0,0,0.6735324859619141,1.0,5.334255e-10,1.5980375e-16,7.469127e-12,5.023662e-14
2,2,0.6725788116455078,9.147897e-30,3.6935002e-10,1.0,1.0189181e-08,1.6834663e-15
0,0,0.6732940673828125,1.0,2.627214e-10,7.764151e-18,1.4216359e-12,1.097142e-15
0,0,0.6749629974365234,1.0,1.5404701e-10,3.2476197e-13,4.3482856e-08,4.4797366e-13
0,0,0.6840229034423828,1.0,3.3680684e-13,2.4972568e-09,1.6454654e-09,1.7042612e-13
0,0,0.6787776947021484,1.0,6.3434835e-10,1.9805019e-10,4.5834813e-08,5.0812657e-12
1,1,0.6747245788574219,0.0035242508,0.99631715,2.6190583e-05,0.00013247608,7.877338e-09
0,0,0.6768703460693359,0.98910224,0.010458436,0.00038910084,5.0150982e-05,1.234649e-08
0,0,0.6773471832275391,0.99999475,2.050727e-06,2.823598e-06,3.7920745e-07,1.1854425e-09
0,0,0.6740093231201172,0.999995,3.30819e-06,8.06639e-08,1.268636e-06,3.3599898e-07
2,2,0.6728172302246094,7.5172843e-06,1.0336615e-06,0.99997795,1.3340733e-05,6.5727434e-08
0,0,0.6718635559082031,0.9999509,4.6878373e-05,2.9784278e-10,2.2480147e-06,2.9151315e-10
0,0,0.6742477416992188,0.9999317,9.8388696e-08,1.9188471e-07,6.5443855e-05,2.4974258e-06
0,0,0.6763935089111328,0.9999987,1.2966218e-06,4.0370426e-11,5.997714e-08,4.6558538e-10
0,0,0.6756782531738281,1.0,1.0922235e-10,4.79753e-09,4.002955e-09,3.9285727e-12
0,0,0.6773471832275391,0.9999995,1.6578841e-08,1.5134667e-07,3.6461103e-07,1.0785417e-09
0,0,0.6742477416992188,0.99999905,2.6613804e-07,5.4764956e-11,6.6581197e-07,2.0536084e-10
0,0,0.7030963897705078,0.99998057,1.8207922e-05,2.9413811e-09,1.2579916e-06,9.0527796e-10
0,0,0.6730556488037109,0.99995613,4.1917578e-05,1.8301929e-08,1.5534262e-06,3.913263e-07
0,0,0.6749629974365234,0.9999455,1.1657629e-09,2.12334e-10,5.4503453e-05,6.915745e-11
2,2,0.6723403930664062,6.9457327e-19,4.898235e-15,1.0,8.9380743e-13,1.7752853e-19
0,0,0.6737709045410156,0.99965596,2.54029e-05,0.00018022882,0.00013677611,1.6116763e-06
0,0,0.6728172302246094,0.99981517,0.00018054793,1.4920679e-09,4.3021546e-06,1.7922934e-08
0,0,0.6723403930664062,1.0,6.161428e-10,4.451996e-12,4.184821e-10,1.7811922e-13
0,0,0.6763935089111328,0.9999987,2.1817438e-13,1.3459326e-06,2.3238869e-08,7.010623e-11
0,0,0.6823539733886719,0.9999559,4.072379e-05,1.0394692e-06,2.2647005e-06,2.0060249e-08
0,0,0.675201416015625,0.99967957,0.00028003863,8.5502425e-06,2.7506712e-05,4.320537e-06
0,0,0.6778240203857422,0.99999666,1.6541379e-06,8.047318e-08,1.5875862e-06,2.512615e-08
0,0,0.6775856018066406,0.99998736,1.1232693e-05,9.29799e-11,1.3787511e-06,8.181634e-10
0,0,0.6740093231201172,0.99907804,0.00044266853,0.00032193383,0.00015579181,1.4952506e-06
0,0,0.6740093231201172,0.99999833,5.5393325e-08,4.3234843e-12,1.6460051e-06,1.6766295e-10
0,0,0.7007122039794922,1.0,2.2120808e-08,9.3521357e-20,7.247916e-13,5.4642655e-17
0,0,0.6735324859619141,0.9999919,6.7368605e-06,9.496052e-09,1.3113441e-06,1.3034932e-09
0,0,0.6728172302246094,0.9999974,5.0932346e-07,1.8480368e-07,1.8242305e-06,1.1112319e-09
1,1,0.6833076477050781,1.3108694e-05,0.9999869,1.1126565e-12,1.0239013e-09,2.4061023e-15
0,0,0.6780624389648438,0.99999905,1.2959911e-09,2.1210331e-10,9.0166526e-07,1.5267207e-10
0,0,0.6747245788574219,0.9999981,1.2070539e-08,1.2190959e-06,6.0140314e-07,1.7295633e-07
0,0,0.6744861602783203,0.9998202,8.122389e-05,6.1431336e-07,9.710488e-05,9.0706806e-07
2,2,0.6756782531738281,4.7591975e-20,8.4648977e-10,1.0,5.3266938e-09,2.3057957e-16
0,0,0.6747245788574219,0.9999993,4.291691e-07,3.6334823e-14,3.2407343e-07,4.1560207e-11
0,0,0.6747245788574219,0.99932015,0.0005085416,2.7055538e-08,0.00016833888,2.9631753e-06
0,0,0.6735324859619141,0.9999999,2.1338922e-08,1.17251955e-11,4.3862446e-08,3.6029468e-10
0,0,0.6728172302246094,1.0,1.2679964e-08,1.192477e-16,1.7821475e-09,3.692459e-13
0,0,0.6737709045410156,1.0,1.3182404e-09,3.8979306e-25,3.3856918e-16,2.3684187e-19
0,0,0.6723403930664062,0.99935406,0.00010773222,6.647667e-05,0.00036940907,0.000102331156
0,0,0.6973743438720703,0.9999999,2.0951458e-09,2.0119777e-14,8.2875104e-08,4.183481e-13
0,0,0.6780624389648438,1.0,3.919485e-13,1.8595392e-08,3.4122583e-09,1.8665187e-11
0,0,0.6740093231201172,0.99997485,2.168307e-05,1.8538732e-07,2.4197345e-06,8.83603e-07
0,0,0.6754398345947266,0.99763024,0.0015965165,4.42986e-06,0.00076863164,2.1185924e-07
0,0,0.6768703460693359,0.99998343,8.706871e-06,2.7075652e-07,7.6065903e-06,2.670434e-08
0,0,0.6744861602783203,0.9999995,9.488249e-09,1.3570294e-10,4.5711278e-07,4.705652e-12
2,2,0.6728172302246094,9.746716e-16,2.1871653e-09,0.99998,1.743378e-05,2.612451e-06
0,0,0.6735324859619141,1.0,7.444519e-09,2.0889093e-13,3.0932583e-11,2.81934e-15
2,2,0.6754398345947266,1.966834e-13,1.7742452e-24,1.0,1.7067443e-08,8.895071e-15
0,0,0.6735324859619141,0.9999896,1.0069386e-05,6.136723e-10,3.5939934e-07,8.0882157e-10
1,1,0.6730556488037109,0.00074798806,0.999252,1.2135474e-11,7.3736444e-09,3.1728448e-14
0,0,0.6725788116455078,1.0,8.308303e-09,4.0094058e-08,1.2796585e-08,2.7852376e-09
0,0,0.6785392761230469,0.9997049,0.00021591152,2.6442453e-06,6.968849e-05,6.8885684e-06
0,0,0.7021427154541016,0.9999958,3.6632641e-06,1.6406675e-12,5.210599e-07,3.1926545e-10
0,0,0.6768703460693359,0.99999964,1.29956e-07,7.367154e-08,1.678282e-07,5.277543e-09
0,0,0.6766319274902344,0.99998796,1.6435065e-06,2.9238741e-08,1.0393276e-05,5.3807003e-08
0,0,0.6766319274902344,0.9999988,9.4620916e-09,9.8832755e-09,1.2409819e-06,7.3579426e-10
0,0,0.6730556488037109,0.999995,4.897317e-06,2.227756e-13,7.709434e-08,1.2115784e-11
2,2,0.6744861602783203,2.8899902e-10,5.565894e-11,0.99999595,4.0278774e-06,8.099819e-09
2,2,0.6723403930664062,9.768878e-05,6.948685e-10,0.9982247,0.0016748984,2.7130286e-06
0,0,0.6721019744873047,0.9999999,1.1448473e-07,1.3421496e-09,3.2762095e-08,1.1787656e-13
0,0,0.6740093231201172,0.9994728,0.0005271819,6.6254324e-12,9.9184454e-08,8.114e-11
0,0,0.6725788116455078,0.9999993,1.289551e-07,4.296892e-07,6.623956e-08,2.9858227e-11
0,0,0.6768703460693359,0.99997985,1.5528329e-05,2.4491724e-09,4.5720253e-06,1.9047643e-08
0,0,0.6744861602783203,1.0,1.1670133e-11,3.0720218e-18,8.368436e-13,9.476554e-16
0,0,0.6747245788574219,1.0,1.0888648e-09,1.0937194e-23,9.860564e-16,3.6981637e-19
0,0,0.6778240203857422,0.99999845,1.4524062e-06,1.671419e-10,7.7798624e-08,1.7505249e-08
0,0,0.7073879241943359,0.9999981,1.8587077e-06,1.823288e-11,9.3789694e-08,3.3815523e-10
0,0,0.6747245788574219,0.99999833,2.6108211e-09,2.7045669e-08,1.7028428e-06,1.075414e-09
0,0,0.6761550903320312,0.9999943,5.7205616e-06,3.6046058e-13,6.2990813e-09,3.949783e-12
0,0,0.6737709045410156,1.0,3.2234244e-08,6.1371135e-14,8.957634e-09,7.974126e-12
0,0,0.67138671875,0.9999647,2.791446e-06,7.0437522e-09,3.2456297e-05,3.1288432e-09
0,0,0.6725788116455078,0.9999999,1.2624055e-07,3.4929667e-15,2.5938995e-09,4.599329e-13
0,0,0.6718635559082031,0.999456,1.180159e-05,0.0004689621,3.884941e-05,2.442116e-05
2,2,0.6775856018066406,1.9377327e-14,1.2547363e-10,0.99999607,3.9838615e-06,3.8848417e-15
0,0,0.6766319274902344,0.9999999,6.372995e-08,1.4916914e-10,2.7935958e-09,7.4435545e-12
0,0,0.6756782531738281,0.99998856,7.84019e-08,5.705364e-07,1.0601577e-05,1.0834608e-07
0,0,0.6763935089111328,0.9999994,8.3910635e-13,5.8392556e-07,3.0779592e-08,8.989145e-11
0,0,0.6756782531738281,0.9999999,8.4603446e-10,5.1786534e-14,1.2198323e-07,6.6806044e-14
0,0,0.6737709045410156,0.9999981,1.8482294e-06,2.6049982e-11,1.0181241e-07,3.911246e-10
0,0,0.6718635559082031,0.9997532,5.8470196e-06,5.74074e-06,0.00020375715,3.147057e-05
0,0,0.7028579711914062,0.9999752,6.176094e-08,3.6715826e-06,1.9871513e-05,1.1932531e-06
0,0,0.6768703460693359,0.9999907,2.7687884e-06,6.6301176e-08,6.307027e-06,1.16747e-07
0,0,0.6737709045410156,0.99986804,6.7616515e-05,3.1638953e-07,6.384665e-05,1.528172e-07
0,0,0.6723403930664062,0.99995255,4.6752546e-05,1.1016509e-07,5.3703263e-07,8.512094e-10
0,0,0.6766319274902344,1.0,3.8663096e-08,1.5909288e-10,1.258613e-09,1.2303138e-12
0,0,0.6771087646484375,0.9998185,0.00012062976,3.5919635e-05,2.3162967e-05,1.9509162e-06
0,0,0.6725788116455078,1.0,3.8381498e-10,2.9166513e-12,2.4123195e-11,1.0137616e-12
2,2,0.6794929504394531,1.8224654e-08,7.0270935e-11,0.99993634,6.35683e-05,1.6462758e-07
0,0,0.6775856018066406,0.9760911,0.023852417,3.360722e-05,2.2822622e-05,2.8798208e-09
2,2,0.6749629974365234,2.2802651e-05,6.322551e-10,0.99993145,4.563034e-05,1.2251547e-07
0,0,0.6766319274902344,0.99988544,0.00011352184,4.0142986e-10,1.026511e-06,1.9643284e-10
0,0,0.6732940673828125,1.0,5.891211e-09,2.4600296e-11,7.247792e-09,1.10129435e-13
0,0,0.6723403930664062,0.999979,1.691157e-05,7.21764e-08,3.924245e-06,4.274622e-08
0,0,0.7085800170898438,1.0,1.0608817e-09,9.081998e-13,3.932547e-08,2.9712555e-13
1,0,0.7104873657226562,0.999037,0.0005999377,4.617645e-06,0.00035777947,6.0909537e-07
0,0,0.6878376007080078,0.9999995,5.1929476e-07,5.948345e-19,8.1956775e-11,6.311903e-15
2,2,0.6809234619140625,0.23786025,3.5620844e-05,0.71407837,0.047983103,4.2673244e-05
1,1,0.6761550903320312,0.0006553358,0.9993445,7.1800612e-12,1.4057771e-07,7.0794606e-11
0,0,0.6723403930664062,0.99990237,9.055687e-05,3.3878553e-08,7.100251e-06,2.1735718e-09
0,0,0.675201416015625,0.9999999,1.6322291e-07,3.9523315e-15,2.1973718e-11,4.1537386e-12
0,0,0.6766319274902344,0.99999785,1.0877302e-07,3.735611e-14,1.9978365e-06,4.4639095e-11
0,0,0.6740093231201172,1.0,2.6070873e-10,7.5606056e-11,2.044513e-09,1.5534784e-11
0,0,0.6730556488037109,0.99999917,7.1690266e-07,2.2792529e-08,8.435243e-08,9.6383435e-09
0,0,0.6721019744873047,0.9999193,7.658403e-05,3.2906485e-07,3.7935117e-06,3.730132e-08
0,0,0.6718635559082031,0.99999905,3.6730615e-13,9.982067e-07,3.1311913e-08,1.4690228e-10
2,2,0.6735324859619141,1.2954553e-11,3.3222924e-16,0.9998117,0.00018832569,1.0032078e-08
0,0,0.6775856018066406,1.0,4.4272768e-09,5.655932e-10,1.096006e-08,1.0778496e-12
0,0,0.7164478302001953,0.99999833,1.6932125e-06,3.9460283e-15,6.272024e-09,1.5411741e-12
0,0,0.6794929504394531,0.99994504,4.5309032e-05,2.216599e-06,7.2140433e-06,1.3876009e-07
0,0,0.6771087646484375,0.99999523,4.6962873e-07,4.4744108e-10,4.3499945e-06,1.7707441e-09
0,0,0.6768703460693359,0.9998833,3.2467644e-05,7.653232e-06,7.328652e-05,3.3439467e-06
0,0,0.6735324859619141,0.99991226,3.3327273e-05,3.3713259e-06,5.0760143e-05,3.1062388e-07
0,0,0.6725788116455078,0.9999906,2.785234e-08,9.44788e-06,8.9736405e-09,3.19999e-10
0,0,0.6728172302246094,0.99999464,5.338858e-06,2.3900016e-12,4.256535e-09,1.2980985e-12
2,2,0.6749629974365234,0.019539341,0.00021715782,0.47185543,0.07588483,0.43250322
0,0,0.6744861602783203,0.9999603,3.679532e-05,4.2718617e-11,2.9065375e-06,4.513419e-09
0,0,0.6728172302246094,0.9997516,0.00024824403,3.3828538e-14,1.7013572e-07,2.2704347e-10
0,0,0.6766319274902344,0.9999999,4.2252215e-09,6.7168216e-08,1.7749667e-08,1.2360328e-10
2,2,0.6773471832275391,5.1276775e-08,3.6326433e-08,0.99944884,0.0005468206,4.235172e-06
0,0,0.6768703460693359,1.0,9.051626e-14,3.4533318e-12,3.994645e-11,2.5911153e-13
0,0,0.6997585296630859,0.999987,2.4775997e-07,1.8832278e-06,1.0674117e-05,1.0210804e-07
0,0,0.6794929504394531,1.0,2.9359523e-08,4.117229e-15,1.0901371e-08,3.1572147e-12
0,0,0.675201416015625,0.9999641,4.0405163e-07,3.5046043e-05,4.2863374e-07,2.8602272e-09
0,0,0.6737709045410156,0.9999994,9.601003e-10,9.029102e-10,5.6812473e-07,1.1541818e-08
0,0,0.6721019744873047,0.9999927,7.2228277e-06,1.3097445e-17,7.765981e-09,1.875694e-12
0,0,0.6711483001708984,0.99999166,1.2487735e-07,1.7972152e-07,7.990878e-06,1.3517837e-08
0,0,0.6725788116455078,0.99938333,0.00032776516,8.515489e-06,0.00026737538,1.30995195e-05
0,0,0.6749629974365234,0.9999975,2.2165082e-06,3.4723702e-09,2.0643257e-07,9.041846e-08
0,0,0.6775856018066406,0.9999832,1.673835e-05,2.3741067e-10,7.0437785e-08,3.1497246e-10
0,0,0.6759166717529297,0.9999908,8.914205e-06,2.9213725e-09,2.1746663e-07,4.4600384e-08
0,0,0.6763935089111328,0.9999682,3.1074054e-05,4.0289372e-10,7.944343e-07,2.5208031e-09
0,0,0.6740093231201172,0.99999785,1.097435e-07,1.019274e-11,2.0451007e-06,1.6429866e-10
3,0,0.6778240203857422,0.773228,0.00039015285,6.441044e-06,0.22632597,4.9377308e-05
0,0,0.6747245788574219,0.99999905,4.251418e-07,1.4340244e-10,5.5891354e-07,7.4557616e-10
0,0,0.6995201110839844,0.9999981,1.1702209e-07,6.832148e-14,1.7513092e-06,6.61568e-11
0,0,0.6723403930664062,0.9999999,1.43495e-07,4.811875e-15,2.4177755e-09,4.638966e-13
0,0,0.6902217864990234,0.9999995,2.1110338e-13,4.51739e-07,1.8520236e-08,4.3517946e-11
0,0,0.6742477416992188,0.99999964,3.7566952e-07,1.760399e-14,4.685026e-09,2.024262e-12
1,1,0.6742477416992188,0.00036099672,0.9985769,7.759055e-05,0.0009843763,2.0193293e-07
0,0,0.6737709045410156,1.0,9.772443e-10,2.6518858e-08,6.568496e-10,1.1014914e-10
1,0,0.6778240203857422,0.8801422,0.118889645,0.00018067268,0.0007806385,6.847879e-06
0,0,0.6759166717529297,0.9999995,4.3143444e-07,4.1523847e-11,2.2871653e-09,2.4231494e-12
0,0,0.6742477416992188,0.9985843,0.0014148626,1.8721663e-12,9.102597e-07,2.3079815e-14
0,0,0.6737709045410156,1.0,1.8415444e-09,1.3751965e-10,1.8882202e-09,2.4974754e-13
0,0,0.6730556488037109,0.9997625,0.00023402029,1.02185094e-10,3.4694544e-06,9.348182e-09
0,0,0.6794929504394531,0.99999404,2.3862494e-06,8.172772e-07,2.7278945e-06,1.4177781e-10
0,0,0.6732940673828125,0.97225946,0.027438853,5.4148815e-05,0.00024719635,3.2561886e-07
0,0,0.6737709045410156,0.9999999,5.057682e-12,1.12465855e-07,4.8276764e-08,3.227198e-10
0,0,0.7023811340332031,0.99999833,3.717675e-07,1.418372e-09,1.2545e-06,1.410454e-09
0,0,0.6787776947021484,0.99999297,6.5604495e-06,4.0719916e-10,4.3490203e-07,5.701219e-10
0,0,0.6732940673828125,0.99986506,9.1652546e-05,1.0630866e-06,4.1742984e-05,5.1776277e-07
0,0,0.6766319274902344,0.99999964,3.2724665e-07,1.7721509e-09,4.7366658e-08,2.8422702e-11
0,0,0.6754398345947266,0.94191295,0.057109453,2.0140992e-06,0.0007794636,0.0001961238
0,0,0.6744861602783203,0.9999993,1.0809516e-08,1.2959006e-08,7.143094e-07,7.702521e-10
1,1,0.675201416015625,0.00062654633,0.9993586,1.1886823e-07,1.472556e-05,2.5223315e-11
0,0,0.6756782531738281,0.9997968,7.2100505e-08,1.6479364e-08,0.00020309363,3.336131e-08
0,0,0.6728172302246094,1.0,4.5169333e-08,2.3501093e-11,2.290314e-09,4.043326e-12
0,0,0.6721019744873047,0.99863225,1.2094385e-07,5.5252435e-06,0.0013570598,5.142133e-06
0,0,0.6728172302246094,0.99999845,1.5792565e-06,6.297209e-13,2.5038645e-08,5.8718863e-12
0,0,0.6730556488037109,0.99975055,0.00024285748,9.632525e-10,6.6020666e-06,1.17470895e-08
0,0,0.6766319274902344,0.99993956,5.7899604e-05,1.3386654e-06,1.2206148e-06,4.860947e-10
0,0,0.6732940673828125,1.0,2.2902964e-09,1.6393565e-17,3.8482967e-13,4.483839e-17
2,2,0.6811618804931641,7.927551e-06,1.1695556e-12,0.99997556,1.6492177e-05,2.9516492e-10
0,0,0.6761550903320312,0.9999988,1.1925247e-06,6.546593e-12,3.8432844e-08,2.7869865e-10
0,0,0.6768703460693359,0.9999969,3.1024445e-06,1.7079941e-18,6.1342567e-12,1.9686367e-13
0,0,0.6735324859619141,0.9999602,7.109715e-08,2.5198844e-05,1.4540795e-05,3.3115562e-08
0,0,0.6735324859619141,0.9999981,1.6379355e-08,9.729764e-09,1.9090564e-06,1.5123339e-08
0,0,0.6728172302246094,0.9993456,1.5420748e-06,0.00065144635,1.3275436e-06,1.2411479e-07
0,0,0.6721019744873047,0.9999993,7.058346e-07,9.507907e-12,1.9691196e-08,2.049856e-10
0,0,0.67138671875,1.0,1.945115e-08,2.6211287e-13,2.4981572e-09,3.1383476e-10
0,0,0.6718635559082031,0.99936205,3.9998707e-07,0.00032093513,0.00024033239,7.625036e-05
0,0,0.6747245788574219,0.99997747,2.2028684e-05,9.232011e-09,4.8373454e-07,2.2223558e-10
0,0,0.6747245788574219,0.99998033,1.8673032e-05,3.8453726e-10,9.4828937e-07,1.7947952e-09
0,0,0.6773471832275391,0.99999964,3.4655363e-07,4.2207104e-20,9.663079e-11,6.784587e-15
0,0,0.6771087646484375,1.0,5.7191595e-08,1.434683e-13,1.06673705e-10,1.7411312e-11
2,2,0.7033348083496094,3.5052142e-11,9.1393435e-09,1.0,3.463725e-10,8.1303315e-12
0,0,0.6768703460693359,0.9999964,3.5535982e-06,1.0269073e-13,1.8907551e-08,9.630395e-13
0,0,0.6747245788574219,0.9999993,7.659914e-07,5.5139774e-15,2.3012814e-09,3.7394678e-13
0,0,0.6730556488037109,0.9176927,0.011801637,0.07008612,0.00041888625,5.060769e-07
0,0,0.67138671875,0.9997998,0.00017858253,1.3337662e-06,1.68286e-05,3.477491e-06
0,0,0.6725788116455078,0.99999964,2.3913262e-07,1.0849075e-08,7.8732e-08,2.0987772e-09
0,0,0.6742477416992188,0.9998734,0.000118241594,5.299695e-08,8.045997e-06,2.975476e-07
0,0,0.675201416015625,0.9999509,4.904736e-05,1.8188957e-14,1.5438845e-08,1.3461023e-11
0,0,0.6723403930664062,1.0,2.9211877e-09,1.2326133e-16,2.6139771e-11,1.6390836e-14
0,0,0.675201416015625,0.996906,0.003065326,2.640283e-09,2.8575154e-05,7.515562e-08
0,0,0.6778240203857422,1.0,3.8996518e-08,1.0359329e-09,1.0411391e-08,9.118047e-13
0,0,0.6768703460693359,0.9999713,2.794702e-05,1.01109336e-07,6.100896e-07,2.9673208e-08
0,0,0.6737709045410156,0.99928087,0.00045839546,9.389411e-06,0.00025031136,1.1247489e-06
0,0,0.6716251373291016,0.9961773,0.002947521,5.3631087e-05,0.0008142601,7.273221e-06
0,0,0.7538795471191406,0.9999999,1.8114243e-09,1.810787e-11,1.7637767e-07,5.4239174e-12
0,0,0.6759166717529297,0.999992,5.1945112e-06,5.4790043e-08,2.626447e-06,9.07336e-08
1,1,0.6716251373291016,0.003949719,0.66081667,0.33114272,0.004089989,7.7437784e-07
0,0,0.6718635559082031,0.99987125,0.00011677577,1.4486706e-06,9.437641e-06,1.1305931e-06
0,0,0.6771087646484375,0.9999999,1.5675556e-07,1.0816345e-20,1.8142163e-11,6.763112e-16
0,0,0.6735324859619141,0.9989742,0.0010195383,4.7136965e-07,5.7758843e-06,2.8030371e-09
0,0,0.6749629974365234,0.99999976,1.9055682e-07,1.1607201e-14,1.611499e-08,4.7662733e-12
0,0,0.6761550903320312,0.9999999,1.0209086e-07,9.852708e-15,2.263376e-09,5.987499e-13
0,0,0.6735324859619141,0.9998455,0.00013063545,1.682754e-07,2.3485054e-05,1.9028427e-07
0,0,0.6716251373291016,1.0,2.3978259e-13,2.4697137e-23,1.9104484e-17,7.033664e-20
0,0,0.6747245788574219,1.0,7.1743465e-09,2.2872249e-15,8.795107e-09,1.1582711e-12
0,0,0.6747245788574219,1.0,2.4114661e-09,5.825212e-08,2.3983853e-08,4.534973e-09
0,0,0.6721019744873047,0.9999933,4.6619985e-07,1.0435695e-12,6.249743e-06,5.34684e-10
0,0,0.6723403930664062,0.9999957,4.2487104e-06,3.2422292e-12,2.3979815e-08,7.4052646e-11
0,0,0.6735324859619141,0.9999504,4.802048e-05,1.3059177e-09,1.5198467e-06,3.9320774e-10
0,0,0.6783008575439453,1.0,5.0501374e-11,5.9566384e-18,1.5028648e-12,1.9533691e-15
0,0,0.6742477416992188,0.99999964,1.5760543e-09,1.9672688e-09,3.5132723e-07,2.1423473e-10
0,0,0.6735324859619141,0.999905,9.446563e-05,5.66734e-09,4.8513806e-07,6.347359e-10
0,0,0.6766319274902344,0.9974498,0.002549516,2.4099799e-11,5.878256e-07,3.215158e-10
0,0,0.675201416015625,0.99998593,5.0651906e-06,1.8804656e-06,5.1810425e-06,1.8525285e-06
0,0,0.6735324859619141,0.999972,1.474233e-05,6.236767e-08,1.31737415e-05,1.685999e-08
2,2,0.6737709045410156,8.360259e-15,5.2686467e-23,1.0,1.7322854e-09,1.4142132e-14
0,0,0.6721019744873047,0.99884903,0.0011094052,3.303365e-10,4.1274612e-05,2.776384e-07
0,0,0.67138671875,0.9999937,4.1123044e-06,8.454203e-08,1.7074743e-06,2.994141e-07
0,0,0.6725788116455078,0.9999994,6.023502e-08,2.1592311e-07,2.786105e-07,4.6278668e-08
0,0,0.6721019744873047,0.9998559,9.1767935e-05,1.623009e-05,3.2962187e-05,3.2234238e-06
0,0,0.6771087646484375,0.9999999,6.452744e-08,1.4243274e-13,1.0628108e-07,2.0785616e-11
0,0,0.7059574127197266,0.9999844,1.5008342e-05,7.806675e-11,6.2780714e-07,1.9813675e-09
0,0,0.6766319274902344,0.9999999,5.2051665e-09,2.7204802e-08,8.7002086e-08,4.816547e-12
2,2,0.67901611328125,1.6507497e-28,1.3152924e-12,1.0,7.9228575e-11,1.9192218e-16
0,0,0.6759166717529297,0.99999464,5.3630674e-06,1.4513239e-13,1.1870036e-09,8.7728005e-11
0,0,0.6740093231201172,0.99917066,0.00048310697,9.037564e-05,0.00024590766,1.00342695e-05
0,0,0.6740093231201172,0.9999999,3.4017322e-08,1.4029382e-09,2.962288e-08,4.1420434e-13
0,0,0.6721019744873047,0.999762,0.00020854201,6.5392355e-06,2.1146527e-05,1.7482076e-06
0,0,0.6711483001708984,0.99999714,1.5464899e-07,6.846178e-10,2.7294593e-06,3.7804362e-10
0,0,0.6716251373291016,0.999998,2.0810264e-06,4.2233594e-13,4.754877e-09,9.090146e-12
0,0,0.6732940673828125,0.99988735,8.922361e-05,1.332379e-06,2.1593745e-05,5.0351713e-07
0,0,0.6780624389648438,0.99995756,2.1648873e-05,7.7144887e-07,1.9907146e-05,6.280702e-08
0,0,0.6742477416992188,0.99996674,1.1807756e-07,1.4136272e-06,3.175135e-05,1.3134914e-08
0,0,0.6725788116455078,1.0,4.1955944e-10,3.5113923e-10,3.4564012e-09,3.383628e-11
0,0,0.6761550903320312,0.9999995,4.3160583e-08,3.6689134e-08,4.0390566e-07,1.1959251e-08
0,0,0.7081031799316406,0.9937768,0.006155997,7.1540005e-09,6.717987e-05,2.508376e-08
0,0,0.6754398345947266,0.99406165,0.005014233,0.00028550133,0.00061720423,2.1411988e-05
0,0,0.6737709045410156,0.9999988,1.0929841e-06,4.950751e-08,1.410647e-07,5.2421743e-09
0,0,0.6725788116455078,0.9999515,4.5604732e-08,2.0651079e-08,4.847791e-05,6.527811e-10
0,0,0.6735324859619141,0.9999957,4.179507e-06,1.3351658e-13,1.3521303e-07,1.9573022e-12
0,0,0.6732940673828125,0.999946,5.3995533e-05,1.3223461e-10,4.4531404e-08,1.7005213e-11
0,0,0.6728172302246094,0.99999964,3.6798065e-07,7.6872e-18,1.2640237e-08,6.6040473e-13
0,0,0.6771087646484375,1.0,1.22576e-09,1.0988376e-09,6.1500394e-10,2.4032558e-13
0,0,0.675201416015625,0.9999999,1.0409628e-07,7.9845276e-14,2.1376703e-10,8.7616465e-14
0,0,0.6759166717529297,0.9999999,6.278752e-08,2.5748725e-09,2.1611994e-09,2.5155537e-11
0,0,0.6785392761230469,0.9999975,2.4381868e-06,2.9609606e-11,7.8705554e-08,3.1121775e-10
0,0,0.6763935089111328,1.0,1.2590708e-14,1.9432359e-11,1.0585255e-08,1.9541204e-09
0,0,0.6730556488037109,0.9999933,2.025364e-06,7.63791e-15,4.622202e-06,4.1045325e-10
0,0,0.6749629974365234,0.9959325,0.0040467074,2.1742157e-09,2.0696281e-05,1.0224328e-07
0,0,0.7007122039794922,0.9999982,1.6864743e-06,5.8271485e-11,8.1015415e-08,1.690005e-10
0,0,0.6740093231201172,0.99995494,2.7847194e-05,1.782755e-08,1.7151006e-05,1.239965e-07
0,0,0.6721019744873047,0.99999976,2.0391384e-07,7.797747e-11,1.1435786e-08,2.4837226e-09
0,0,0.6718635559082031,1.0,4.672532e-10,2.7434568e-18,3.4916153e-11,4.6827156e-12
1,1,0.6766319274902344,0.01201672,0.98798126,5.6079473e-12,1.9693732e-06,3.5322496e-12
0,0,0.6742477416992188,0.9999993,1.2358066e-09,4.516144e-09,7.362387e-07,4.445998e-10
0,0,0.6740093231201172,0.9999734,2.6601983e-05,1.4469984e-12,2.3096657e-08,1.1540296e-10
0,0,0.6759166717529297,0.99953866,0.0003153211,1.5032386e-07,0.0001447881,1.2257398e-06
0,0,0.6766319274902344,0.9998272,0.00016396436,3.1337358e-08,8.8202505e-06,8.7227703e-10
0,0,0.6725788116455078,1.0,2.9913687e-09,8.760307e-15,1.7083351e-10,3.477694e-13
0,0,0.6721019744873047,0.99522483,3.1782196e-08,1.354782e-07,0.0047676875,7.3290494e-06
2,2,0.6744861602783203,8.3576055e-13,1.2346708e-22,1.0,1.2137722e-08,5.2294442e-14
0,0,0.6737709045410156,0.99999607,2.6871962e-08,3.3647184e-06,5.1437934e-07,1.4660613e-08
0,0,0.6988048553466797,0.99999917,1.7947178e-07,3.8907066e-14,6.431498e-07,1.3580716e-11
0,0,0.675201416015625,0.99999976,3.6610133e-09,2.2568374e-08,1.9369558e-07,1.4239015e-08
0,0,0.6763935089111328,0.9988674,0.0011323822,4.1027803e-11,2.6668243e-07,5.5109756e-10
0,0,0.6747245788574219,0.99999976,4.321529e-08,4.586746e-14,2.3026392e-07,6.304479e-12
0,0,0.6737709045410156,0.999979,4.5764645e-09,2.0479165e-05,4.5773243e-07,5.1688778e-09
0,0,0.6768703460693359,0.9999497,4.918778e-05,1.0241278e-11,1.060026e-06,7.758255e-10
0,0,0.6763935089111328,0.99998164,3.947994e-08,1.1659224e-06,1.7181752e-05,8.731897e-09
0,0,0.6725788116455078,0.9999951,4.6584005e-06,6.8874334e-10,2.5009032e-07,1.6473288e-09
0,0,0.6723403930664062,1.0,1.0896621e-10,4.7892343e-18,4.6985423e-12,2.443475e-15
0,0,0.6737709045410156,0.9999809,1.9085695e-05,9.428621e-11,1.479932e-08,2.2861303e-11
0,0,0.6725788116455078,0.99999964,4.238347e-08,1.7856738e-07,2.0845327e-07,1.0177368e-08
0,0,0.67138671875,0.9999883,7.185729e-06,8.064152e-08,3.7786986e-06,6.131266e-07
2,2,0.67138671875,6.233973e-14,3.4130544e-23,1.0,9.909539e-10,5.730987e-15
0,0,0.6778240203857422,0.9999831,2.947734e-06,6.706743e-06,7.298223e-06,2.8291858e-09
