label,pred,exec_time_ms,pred_0,pred_1,pred_2,pred_3,pred_4
0,0,1.6863346099853516,1.0,3.0592318e-08,9.684065e-14,1.3118504e-15,1.2981036e-26
0,0,0.8168220520019531,1.0,2.4111683e-12,3.080142e-18,6.6893695e-09,1.8887287e-27
1,0,5.094051361083984,0.45846453,0.45706403,0.05347716,0.030994292,7.5050984e-17
0,0,0.7691383361816406,1.0,3.4412405e-08,1.7896549e-13,9.782302e-15,1.2276525e-17
2,2,0.6761550903320312,8.568401e-26,1.4652679e-38,1.0,4.878448e-31,7.6366266e-36
2,2,0.6725788116455078,1.26368625e-20,9.265531e-19,1.0,4.1132983e-33,4.1251674e-30
0,0,0.6730556488037109,1.0,4.626237e-08,3.826717e-14,3.1733951e-12,2.0544828e-30
0,0,0.6701946258544922,0.9999993,7.0467576e-07,3.4907003e-15,1.2302456e-11,4.0766156e-26
0,0,0.6701946258544922,1.0,3.7215973e-09,3.382841e-11,3.2715403e-11,9.889883e-21
0,4,0.6709098815917969,0.00024704888,4.456535e-15,2.708412e-12,0.005786563,0.99396634
0,1,0.6690025329589844,0.14330825,0.8566917,1.7986211e-11,1.2857487e-13,2.7775896e-25
0,0,0.6670951843261719,1.0,3.5501667e-15,1.7772234e-19,7.553968e-09,2.0294761e-25
0,0,0.6694793701171875,0.7136217,0.000111095585,1.5279852e-08,0.2862672,2.1824046e-35
0,0,0.6761550903320312,0.9999999,1.5704396e-10,2.414159e-16,6.5046684e-08,5.374506e-16
0,0,0.8332729339599609,0.9999846,1.5626849e-11,4.643476e-19,1.5429468e-05,3.733095e-30
3,3,0.7684230804443359,3.3936627e-09,8.215794e-26,4.211319e-28,1.0,3.6289837e-36
0,0,0.9810924530029297,0.9999982,1.3174777e-07,9.18125e-11,1.6555357e-06,2.7966245e-24
0,1,0.6854534149169922,0.04422885,0.9557711,1.5366947e-19,6.237332e-12,3.781e-42
2,2,0.6709098815917969,6.598825e-09,1.34143605e-20,1.0,3.642294e-12,5.684876e-13
1,0,0.6694793701171875,0.98667103,1.4987021e-08,0.013328915,2.8259644e-09,1.6014464e-14
0,0,0.6690025329589844,1.0,2.7259947e-17,3.0828375e-08,1.4718491e-17,3.0321625e-22
0,0,0.6706714630126953,0.9986248,0.0012005923,0.0001733559,1.2526395e-06,5.272505e-18
0,0,0.6690025329589844,1.0,7.8841837e-28,1.4924577e-09,1.0207318e-14,2.4394171e-09
2,0,0.6699562072753906,0.9999778,0.0,2.214112e-05,1.225675e-08,1.2597704e-33
0,0,0.6692409515380859,1.0,1.7779171e-09,3.5016587e-19,1.4723185e-20,7.861254e-24
0,0,0.6685256958007812,0.99781656,5.695679e-23,0.0021834394,1.0728146e-23,1.0779139e-22
0,0,0.6716251373291016,0.999984,1.5961063e-05,2.8985604e-11,6.1647136e-18,3.4952862e-36
0,0,0.7112026214599609,0.9999294,7.0518254e-05,6.729062e-10,3.9838858e-11,1.5794832e-23
0,1,0.6728172302246094,0.46006158,0.53939956,0.00053369295,5.1708944e-06,6.0834906e-17
0,0,0.6699562072753906,0.99999666,3.333309e-06,1.2180101e-19,1.8095523e-22,1.9444244e-32
0,0,0.6692409515380859,1.0,7.994048e-15,1.1933246e-14,1.2679491e-10,3.4016876e-34
0,0,0.6699562072753906,0.99826705,0.0017328827,1.5254127e-12,1.4374581e-11,4.9019064e-29
0,0,0.6711483001708984,0.99999785,2.202845e-06,3.322962e-16,8.1880586e-10,6.2701613e-22
0,0,0.6697177886962891,0.96320987,0.03678993,4.776822e-11,2.5071486e-07,1.405815e-23
0,0,0.6766319274902344,1.0,1.4546407e-09,3.4224665e-16,1.8595921e-31,1.3873446e-32
0,0,0.7979869842529297,0.9999999,9.70532e-08,2.377328e-17,2.4631723e-17,1.1155998e-26
0,0,0.7367134094238281,0.99999964,3.351915e-07,5.1386255e-18,3.13308e-16,2.8128728e-22
0,0,0.6737709045410156,0.9998073,1.07620274e-07,7.1048303e-16,0.00019260157,4.0052626e-23
0,0,0.6704330444335938,1.0,2.2602697e-13,1.231246e-08,1.2209591e-11,1.0363478e-13
0,0,2.1610260009765625,1.0,5.872067e-11,1.1052064e-09,4.6612088e-14,1.7466668e-14
0,3,0.9100437164306641,0.07800208,1.3611876e-07,1.5858791e-09,0.92199546,2.349893e-06
0,0,0.9870529174804688,0.99998045,1.9545521e-05,2.7100599e-15,1.4272875e-18,0.0
2,1,0.9031295776367188,1.6066945e-10,0.93294555,0.06705386,6.103596e-07,7.483024e-32
0,0,0.8742809295654297,0.99999976,2.3904803e-07,2.7752342e-14,7.872044e-12,2.4490597e-26
0,0,0.7543563842773438,1.0,2.7406253e-08,4.1955957e-17,1.1017687e-14,3.1758386e-21
0,1,0.7266998291015625,7.751415e-05,0.9999225,8.853132e-12,7.322794e-12,6.8487537e-16
0,0,0.8301734924316406,1.0,1.3604858e-16,5.362384e-16,1.644604e-11,1.367223e-39
0,3,0.865936279296875,2.8376417e-06,6.0872387e-09,2.4211502e-10,0.99999714,7.518327e-09
0,0,1.0290145874023438,1.0,8.961397e-12,6.503247e-18,1.5857209e-14,1.1492e-41
0,0,0.9872913360595703,1.0,2.197937e-12,6.1415887e-21,1.8400218e-19,3.1036443e-28
0,0,0.8881092071533203,0.9999999,1.326393e-07,3.5197763e-20,2.6884822e-20,7.665411e-34
0,1,0.8478164672851562,0.0001258038,0.99987423,2.148605e-18,4.1200098e-15,3.28188e-36
0,0,0.8399486541748047,0.99999917,2.2761715e-09,5.6591337e-17,8.118816e-07,9.626667e-15
0,0,0.8447170257568359,0.9991856,0.00081439427,1.785395e-14,3.5811236e-11,9.950095e-38
0,0,0.957489013671875,1.0,2.5221619e-25,2.271097e-15,2.213985e-19,3.21064e-36
0,3,1.146554946899414,0.24873586,5.468327e-14,0.00221484,0.74904925,2.6103443e-14
0,0,1.2288093566894531,1.0,1.8139e-09,1.923675e-12,5.4271393e-11,3.275361e-15
0,0,0.9171962738037109,1.0,1.3297258e-12,6.886047e-22,1.27492936e-20,9.380401e-34
0,0,0.84686279296875,1.0,1.7551285e-15,8.938936e-11,3.894445e-10,2.0212805e-38
0,0,0.6849765777587891,0.9999999,1.3129889e-27,9.090216e-08,2.1606078e-15,1.3619453e-30
0,0,0.6706714630126953,0.99910873,5.3733957e-12,1.0959218e-15,0.0008912877,2.3607323e-37
0,0,0.6704330444335938,0.9986829,0.0007931716,1.2665624e-09,0.00052384584,2.6052566e-26
2,2,0.6697177886962891,1.9994921e-32,0.0,1.0,4.0273232e-28,0.0
0,0,0.7078647613525391,0.9999999,6.1996575e-10,7.1626787e-14,6.8968994e-08,1.13461545e-36
0,0,0.7693767547607422,0.998936,5.496736e-12,2.111023e-16,0.0010640267,2.9235412e-15
0,0,0.7081031799316406,1.0,1.4185502e-09,6.5115197e-16,1.1448467e-12,1.9900938e-17
0,0,0.7631778717041016,0.99999976,1.7652644e-18,2.749952e-07,5.710516e-15,3.5331982e-29
0,0,0.6701946258544922,0.9987863,0.0012136901,8.63844e-15,1.5191837e-08,6.90307e-32
1,1,0.6697177886962891,8.572165e-06,0.9999914,1.09222666e-10,1.2525347e-15,1.3485314e-26
0,0,0.6692409515380859,0.99999964,2.228665e-15,2.852831e-17,3.571874e-07,5.800415e-17
0,0,0.6694793701171875,1.0,4.6840445e-13,1.0172283e-24,3.92131e-28,4.075327e-34
0,0,0.6687641143798828,1.0,4.793073e-10,1.1177102e-08,3.053791e-09,6.07596e-40
0,0,0.6692409515380859,0.9999927,7.254832e-06,8.419095e-09,4.6865845e-09,2.5068404e-35
0,2,0.6682872772216797,0.25183702,1.1741968e-17,0.74641395,3.4944828e-13,0.0017490372
0,0,0.6685256958007812,1.0,2.8235745e-12,4.6378647e-19,2.8468655e-12,5.0220998e-33
0,0,0.6697177886962891,1.0,3.0661804e-10,3.604029e-20,1.8749178e-19,6.319094e-20
0,0,0.6690025329589844,0.9999902,7.724477e-06,2.3581956e-11,2.1006108e-06,4.761039e-20
1,0,0.6694793701171875,0.9997693,4.4310235e-07,0.00023024151,6.6641827e-12,1.0941131e-24
0,0,0.667572021484375,1.0,9.992958e-10,6.144846e-21,5.606738e-14,1.4911715e-24
0,0,0.6709098815917969,1.0,4.245806e-09,2.2857816e-11,3.7435882e-17,2.9956214e-17
0,0,0.7054805755615234,0.99926513,0.00013772759,3.0782697e-08,0.0005971851,1.7465109e-34
0,0,0.6694793701171875,1.0,1.3348144e-14,4.506964e-21,8.923003e-16,6.939713e-36
1,0,0.6694793701171875,0.9997173,2.5039148e-12,1.644598e-06,0.00028101206,2.2474841e-20
0,0,0.6682872772216797,1.0,9.068393e-13,1.1299601e-20,5.6984565e-17,4.0262666e-26
0,0,0.6802082061767578,0.99999845,1.5828572e-06,5.925394e-20,8.3537495e-21,1.6980965e-32
0,0,0.7793903350830078,0.9999988,1.1806429e-06,4.0245943e-08,6.1562222e-12,7.2164795e-14
0,0,0.7185935974121094,1.0,1.2543375e-09,8.041302e-15,1.4292409e-15,9.889634e-18
0,0,0.6754398345947266,1.0,6.996397e-25,3.930915e-18,1.17287144e-14,1.4151267e-27
0,0,0.6692409515380859,0.9996697,1.703156e-05,5.408635e-09,0.00031332992,2.4091176e-34
0,0,0.6694793701171875,0.64767945,0.35231996,2.1385803e-12,6.200047e-07,3.0872235e-20
0,0,0.6685256958007812,0.8500704,1.7061603e-16,0.14985828,7.12559e-05,9.084631e-12
0,0,0.6690025329589844,1.0,5.7265932e-08,4.6533663e-21,7.728591e-21,2.45286e-40
0,0,0.6694793701171875,0.9979584,3.236683e-06,9.567309e-14,0.0020382914,1.5604572e-28
0,0,0.7166862487792969,1.0,3.0341524e-11,5.5578133e-18,4.6558724e-20,1.9912214e-36
0,1,0.6699562072753906,2.5834934e-06,0.9999974,5.054087e-10,1.19108e-13,1.1233139e-18
0,0,0.6685256958007812,1.0,3.8886084e-15,1.2067277e-22,1.5522682e-21,4.649953e-16
1,1,0.6699562072753906,3.4202172e-11,1.0,2.2554407e-18,1.3594028e-37,5.2273e-41
0,0,0.6723403930664062,1.0,5.811788e-14,3.1501437e-18,4.8326995e-15,1.0252351e-29
0,0,0.6740093231201172,0.99999595,1.5079527e-08,4.0726336e-06,8.139543e-09,3.941669e-16
0,0,0.6701946258544922,0.999998,2.0348018e-06,1.8521e-14,9.494819e-14,6.281283e-18
2,2,0.6694793701171875,7.95256e-23,8.767604e-28,1.0,1.8926337e-24,3.84e-43
0,0,0.6690025329589844,1.0,8.115005e-13,4.5804293e-24,3.102226e-27,1.1028145e-31
0,1,0.6690025329589844,0.1397241,0.8602699,2.392719e-06,3.5436806e-06,8.2820225e-20
0,0,0.6697177886962891,1.0,6.1839526e-36,1.81722e-10,1.942903e-18,3.1e-44
0,0,0.6701946258544922,0.9999709,2.9030292e-05,8.5865635e-13,2.720998e-08,1.2119503e-24
0,0,0.6687641143798828,1.0,8.6982786e-13,0.0,4.1076728e-16,3.16028e-40
0,0,0.728607177734375,0.79580957,4.7286456e-11,7.344946e-16,0.20419045,6.007917e-14
2,3,0.8363723754882812,8.1424037e-07,0.0,3.8120465e-08,0.99999917,6.3154445e-29
0,0,0.6976127624511719,0.9999999,1.18263365e-07,4.6318976e-15,3.0398406e-11,2.8586938e-16
0,0,0.6742477416992188,1.0,1.1715268e-08,2.3124043e-22,1.2751876e-27,1.5604095e-26
0,0,0.6692409515380859,0.99994004,6.001016e-05,5.0063047e-11,5.7490367e-11,2.5310227e-24
0,0,0.6685256958007812,0.9999827,1.7151351e-05,6.307007e-08,1.1679918e-13,3.9919755e-16
0,0,0.6685256958007812,0.9897396,0.010260293,6.664536e-08,3.2448902e-08,3.509177e-20
0,0,0.6682872772216797,1.0,1.4438772e-16,2.4964344e-23,6.8445423e-13,3.7668466e-27
0,0,0.6706714630126953,1.0,5.4944025e-11,2.2117592e-09,1.5896669e-14,9.406866e-15
0,0,0.6704330444335938,0.9999987,1.9633878e-12,2.4033966e-23,1.2766608e-06,1.6688317e-26
0,3,0.6699562072753906,0.10267699,0.0003142395,7.0226758e-09,0.8970088,5.874733e-12
0,0,0.6694793701171875,0.9998394,4.0121304e-18,0.00016056604,2.1828644e-14,2.7597755e-12
0,0,0.6704330444335938,0.99990845,1.3904021e-07,1.4648738e-19,9.137418e-05,7.588834e-34
0,0,0.6697177886962891,0.98043585,5.3682495e-08,2.574178e-11,0.019563999,1.0012887e-07
0,0,0.713348388671875,0.99999964,3.0258238e-07,6.30072e-22,1.0668556e-31,1.4562825e-33
0,0,0.6699562072753906,0.99995553,1.37333e-09,2.6193734e-07,4.4278528e-05,1.022939e-11
0,0,0.6690025329589844,0.96853685,3.4831517e-17,0.031453446,9.682167e-06,4.339332e-11
0,0,0.6694793701171875,1.0,1.1643941e-11,4.036348e-22,0.0,4e-45
0,0,0.6694793701171875,0.9999896,1.0395841e-05,7.2238126e-17,1.8072226e-21,3e-45
0,0,0.6685256958007812,0.9999999,8.743577e-08,4.6603777e-08,1.3911294e-08,5.757906e-19
0,0,0.6694793701171875,1.0,2.6396077e-12,1.6740199e-16,6.042788e-13,1.7874221e-26
0,0,0.6802082061767578,0.8876819,0.110494494,4.5359533e-13,0.0018236582,8.77503e-26
0,0,0.7867813110351562,1.0,5.123471e-13,1.259488e-15,7.453717e-15,8.586732e-24
0,0,0.7269382476806641,0.99233234,2.129967e-11,5.427946e-13,0.00766747,2.3520172e-07
0,1,0.6728172302246094,0.00096182764,0.9990382,6.7222074e-13,1.12472025e-14,2.814436e-31
0,0,0.6704330444335938,0.99999964,2.0478459e-16,3.0192803e-07,1.5323571e-15,2.2157482e-28
0,0,0.6704330444335938,1.0,8.09316e-14,6.643085e-25,3.1717235e-28,8.799587e-39
0,3,0.7233619689941406,0.13332276,3.747249e-09,1.6056187e-08,0.8660823,0.0005949006
0,0,0.6699562072753906,1.0,3.1981168e-10,3.8305184e-12,1.8629223e-08,1.598639e-26
0,0,0.6690025329589844,0.99999964,1.303905e-07,2.130629e-07,6.324206e-12,1.7823385e-30
0,0,0.6697177886962891,1.0,1.2436182e-08,9.8456364e-17,2.0604627e-12,3.512342e-22
0,0,0.6706714630126953,0.76137984,0.23862019,1.8360354e-12,4.0005046e-13,2.177166e-24
0,0,0.6694793701171875,1.0,1.303735e-13,1.1925891e-11,6.3494813e-12,1.7474429e-33
0,0,0.6697177886962891,1.0,6.15767e-17,5.9444006e-19,5.070056e-08,2.4398958e-17
0,0,0.6721019744873047,0.9999826,1.0524274e-12,1.7394035e-05,1.8750493e-08,6.2161965e-29
0,0,0.6692409515380859,0.9999949,5.104364e-06,4.6895443e-17,8.361742e-24,1.0937259e-31
0,3,0.6685256958007812,0.010670354,0.0019756907,8.1069185e-14,0.98735386,3.250596e-25
0,0,0.667572021484375,1.0,2.991363e-09,2.0760695e-15,5.576598e-14,1.7340801e-28
0,0,0.6701946258544922,0.9997285,0.0002385302,2.1776443e-05,1.1105603e-05,1.7803832e-20
0,2,0.6706714630126953,0.00076266774,9.068917e-23,0.99913436,0.000103018385,1.1501268e-10
0,0,0.6687641143798828,1.0,2.6813322e-21,3.687838e-19,1.1050952e-08,2.404593e-37
1,0,0.7047653198242188,0.999889,1.13672973e-13,0.00010987424,1.0878863e-06,3.6148775e-20
0,1,0.6730556488037109,0.101738885,0.8982403,1.474114e-11,2.0740206e-05,1.756479e-20
0,0,0.7572174072265625,1.0,1.2029583e-08,5.1963408e-12,4.4092868e-08,9.656581e-14
0,0,0.7913112640380859,1.0,1.4227563e-08,3.8763607e-11,2.0775354e-11,1.7991751e-18
0,0,0.6945133209228516,0.999982,1.2682812e-11,1.6176065e-21,1.7972769e-05,1.1239998e-25
0,0,0.6709098815917969,0.99524176,0.0047582975,2.3408512e-18,1.1232273e-15,2.68704e-30
0,0,0.6692409515380859,0.9957832,1.1031891e-18,5.4368506e-08,4.4903983e-10,0.0042168577
0,0,0.6697177886962891,1.0,7.435375e-14,1.153923e-19,3.2047023e-08,4.120755e-34
0,0,0.6694793701171875,0.99999976,4.5511235e-13,2.3393065e-07,6.155424e-10,2.4633502e-17
0,0,0.6701946258544922,1.0,0.0,3.572801e-15,2.6853128e-22,0.0
0,0,0.6682872772216797,1.0,3.5257708e-12,1.0214331e-10,3.1588143e-29,4.537957e-17
0,0,0.6682872772216797,0.9937168,0.0062832413,6.684894e-10,7.3973196e-09,6.604387e-19
0,0,0.6692409515380859,0.9999975,3.16704e-07,2.0921332e-06,8.538718e-11,4.1981273e-26
0,0,0.7178783416748047,0.9999987,1.3266477e-06,2.0407e-09,3.0726483e-12,2.075828e-16
0,0,0.6697177886962891,0.99999607,6.397288e-09,4.5150477e-15,3.895459e-06,1.1682145e-28
0,0,0.6699562072753906,1.0,2.1577756e-14,6.758057e-24,4.3633456e-13,1.3969238e-26
0,0,0.6697177886962891,1.0,3.1663092e-12,2.131374e-16,3.1572905e-10,6.533895e-14
0,0,0.6690025329589844,0.9986939,9.849742e-10,2.1718185e-13,0.001306093,3.7695593e-17
0,3,0.6694793701171875,0.004458782,8.592682e-07,5.7767996e-16,0.9955403,6.946871e-29
0,3,0.6690025329589844,0.0018462398,1.5212519e-06,3.1541425e-10,0.9981516,5.618555e-07
0,0,0.6690025329589844,0.99999917,5.2986053e-07,9.102281e-09,3.3202696e-07,2.994848e-28
0,0,0.6690025329589844,0.5174107,0.48251075,7.8571335e-05,2.954341e-10,3.764865e-23
0,0,0.6697177886962891,0.5873136,0.41268602,1.1860099e-08,3.636332e-07,1.6064744e-20
0,3,0.6897449493408203,0.18151902,0.00011429546,1.5818037e-10,0.8183666,3.3518025e-14
0,1,0.8096694946289062,0.029136332,0.6884951,0.2823017,6.685901e-05,1.7674078e-14
0,0,0.7150173187255859,1.0,6.658557e-11,2.17708e-23,2.4677355e-31,9.704637e-34
0,0,0.7281303405761719,1.0,2.2773948e-08,9.0147936e-13,3.1137604e-09,1.25056656e-26
2,2,0.6711483001708984,4.1682986e-14,9.556449e-25,1.0,0.0,0.0
0,0,0.6680488586425781,0.9999995,6.848211e-16,1.854614e-07,1.9062948e-07,1.1073215e-14
0,0,0.6685256958007812,0.9999958,4.137225e-06,6.0561495e-16,3.1127423e-10,7.274645e-35
0,0,0.6682872772216797,0.99999964,3.5617506e-07,7.538752e-09,1.563158e-08,3.3779998e-17
0,0,0.6690025329589844,1.0,6.2183865e-16,1.6656901e-21,1.450394e-20,1.4778944e-28
0,0,0.6692409515380859,1.0,2.0772155e-10,1.0897608e-12,6.4895493e-16,5.5436035e-26
0,0,0.6701946258544922,0.99999905,9.23716e-07,8.948813e-09,2.2294028e-08,6.4406895e-15
0,0,0.6687641143798828,1.0,3.453862e-14,2.6276975e-12,2.1642936e-09,3.4265517e-33
2,2,0.6692409515380859,4.021973e-24,5.691538e-28,1.0,1.4261176e-34,4.295045e-38
0,0,0.6706714630126953,0.9999993,3.2651505e-25,2.9531834e-14,1.1392825e-12,7.1622344e-07
0,0,0.6897449493408203,1.0,3.402098e-22,1.1004884e-20,7.959458e-36,1.05848755e-26
0,0,0.6737709045410156,0.9999819,2.971768e-17,1.2467535e-17,1.8069044e-05,4.2702214e-21
0,0,0.6685256958007812,1.0,1.0379745e-12,1.9571958e-15,6.7372454e-09,5.0725385e-13
0,0,0.7143020629882812,0.9999144,8.5594766e-05,8.552556e-13,6.8977185e-19,1.2971612e-33
0,0,0.6692409515380859,0.99999833,1.7230897e-06,1.5479292e-16,2.0182397e-10,7.2691743e-19
0,0,0.6694793701171875,0.98468494,8.827866e-06,3.9116608e-13,0.015306219,3.9767927e-36
0,0,0.6694793701171875,0.9999815,7.048134e-12,1.8445548e-05,2.6442539e-17,5.1091324e-34
1,1,0.6709098815917969,8.0758255e-06,0.9999919,1.410255e-19,2.4440122e-17,6.147563e-28
0,0,0.7872581481933594,0.999426,0.00057396886,1.953455e-15,1.6398336e-11,4.0571336e-22
0,0,0.7476806640625,1.0,1.3530616e-08,7.824692e-17,9.550158e-11,8.2856624e-19
0,3,0.6775856018066406,0.00044993425,2.083144e-10,6.280318e-10,0.9851129,0.014437234
0,0,0.6699562072753906,0.99999785,5.695153e-09,5.0269346e-12,2.1002982e-06,1.0212923e-18
0,0,0.6697177886962891,0.9995467,2.4987967e-17,2.986256e-17,0.000453276,1.2495941e-19
0,3,0.6697177886962891,0.40460107,9.0953574e-05,1.2191768e-07,0.5953078,3.2731612e-31
0,0,0.6701946258544922,0.9999969,3.054159e-06,4.9543003e-13,1.3697087e-13,2.4194218e-26
2,2,0.6692409515380859,2.112029e-25,3.118371e-29,1.0,6.832854e-36,2.7533298e-35
0,0,0.7367134094238281,1.0,2.1243873e-14,1.119678e-11,3.486579e-14,7.1255824e-23
0,0,0.6697177886962891,1.0,1.18490915e-08,3.261335e-15,2.2650735e-09,1.4034501e-27
0,0,0.6709098815917969,1.0,2.0709441e-11,6.320084e-12,2.7575366e-11,1.3722326e-33
0,0,0.6694793701171875,1.0,1.43593835e-11,3.660376e-22,6.1082098e-18,1.6831312e-24
0,0,0.6685256958007812,1.0,2.8645265e-14,1.116784e-18,3.101439e-08,6.4080917e-18
0,0,0.6673336029052734,1.0,3.6524614e-10,1.6327924e-15,3.339167e-18,1.1651988e-25
0,0,0.6687641143798828,0.9999933,9.971476e-09,3.7964805e-20,6.665283e-06,2.9521005e-22
0,0,0.6685256958007812,1.0,2.84117e-08,2.9411265e-15,3.7107484e-15,2.0540527e-29
2,2,0.6680488586425781,1.1132762e-05,5.854673e-28,0.9999889,7.328294e-28,1.5e-44
0,1,0.6697177886962891,0.013173564,0.98682564,2.3654441e-11,8.3293025e-07,6.8062216e-11
1,0,0.6678104400634766,0.9999975,2.5167565e-06,3.794342e-11,7.280278e-09,4.284374e-34
0,0,0.6701946258544922,0.9999876,1.2343788e-05,3.2720333e-13,1.3756364e-13,1.6773779e-19
0,0,0.6682872772216797,0.99973947,3.766315e-06,1.40191895e-11,0.00025670888,1.9118482e-37
0,0,0.7283687591552734,1.0,1.4032375e-10,1.4028444e-21,3.7950964e-15,6.187755e-27
0,0,0.8461475372314453,1.0,1.8616959e-09,1.11517115e-17,1.4457162e-11,7.511724e-21
0,0,0.7131099700927734,0.99999225,7.788686e-06,2.7997727e-13,6.093449e-12,1.3510314e-16
2,2,0.6742477416992188,3.1720164e-19,1.9886366e-25,1.0,1.09926665e-14,5.197e-42
0,0,0.6680488586425781,1.0,1.3904145e-14,3.2465492e-24,3.8065992e-20,5.3703082e-30
0,0,0.6694793701171875,0.99991727,6.2484656e-11,1.2066033e-17,8.276981e-05,8.4875995e-19
0,0,0.6701946258544922,1.0,1.0872269e-10,1.5980803e-12,2.3354083e-11,6.709927e-21
0,0,0.6692409515380859,0.91648537,0.083492994,6.717002e-09,2.162207e-05,9.022812e-21
0,0,0.6699562072753906,0.99999905,9.973839e-12,7.058052e-23,9.3964405e-07,1.4683657e-31
2,2,0.6701946258544922,6.495787e-17,1.3275076e-21,1.0,1.1100224e-18,1.8404489e-35
2,2,0.6687641143798828,2.0119112e-23,5.4695885e-23,1.0,1.7595505e-33,4.598984e-33
0,0,0.6692409515380859,0.981886,0.01790585,4.9651706e-11,0.00020813364,7.2544437e-28
1,0,0.6680488586425781,1.0,3.7290224e-09,3.6803534e-08,2.1049985e-18,8.860996e-31
0,0,0.6690025329589844,0.9999987,3.3230094e-12,1.02231e-19,1.3495301e-06,9.356454e-32
0,0,0.7166862487792969,0.99900264,0.0009973609,2.7228662e-09,2.4266095e-12,2.6863145e-19
0,0,0.6699562072753906,1.0,6.3406267e-22,5.3024543e-25,1.40463134e-08,8.936955e-19
0,0,0.6692409515380859,1.0,8.4281654e-10,1.1958962e-19,3.5816007e-16,6.510034e-37
0,0,0.6690025329589844,1.0,4.855451e-21,6.2601856e-22,4.8803857e-15,7.267948e-39
0,0,0.6680488586425781,1.0,1.7063061e-18,1.7393243e-24,2.8872334e-23,2.861285e-20
0,0,0.6687641143798828,0.9996587,4.0811274e-09,6.3646977e-16,0.00034128103,5.2700918e-20
0,0,0.6699562072753906,0.8944142,0.09791422,1.1226727e-08,0.0076715713,5.623386e-22
3,3,0.6830692291259766,1.5578537e-09,1.2756157e-27,1.7879935e-28,1.0,3.3819027e-35
0,0,0.7998943328857422,0.9995509,0.00044909556,2.1071921e-08,8.154801e-12,5.0851903e-22
0,0,0.7307529449462891,0.99999666,3.3673175e-06,7.092756e-20,1.2675067e-26,2.885097e-39
0,1,0.6725788116455078,0.0040675635,0.7643568,0.23157567,1.6872715e-20,2.3749881e-37
1,0,0.6699562072753906,0.9999585,9.314229e-11,4.124699e-05,2.3642414e-07,9.900524e-15
0,0,0.6687641143798828,1.0,1.632594e-14,9.994811e-09,1.5469999e-15,6.740583e-14
0,0,0.7307529449462891,1.0,1.627105e-09,4.0641226e-17,5.907264e-14,2.0099246e-30
0,0,0.6699562072753906,0.99999547,1.331341e-09,4.49519e-06,9.52422e-13,5.2415416e-11
0,0,0.6697177886962891,0.87666506,1.4251013e-17,0.12319583,0.00013911253,2.0151101e-11
0,0,0.6704330444335938,1.0,7.941193e-15,3.0011454e-10,6.347153e-17,2.621686e-15
1,1,0.6697177886962891,9.587728e-07,0.9999989,9.108901e-08,4.9455574e-17,3.3130114e-19
0,0,0.6697177886962891,1.0,1.4852848e-16,3.552609e-09,9.936801e-16,1.6951755e-30
0,0,0.6690025329589844,1.0,9.760767e-13,2.0781214e-23,8.18207e-28,1.3264363e-33
2,2,0.6701946258544922,1.8639073e-19,5.426948e-28,1.0,1.567153e-23,1.10689e-39
2,2,0.6716251373291016,3.589292e-21,3.7085017e-36,1.0,1.0465497e-21,3.8801907e-38
0,0,0.6699562072753906,0.8112174,3.1440293e-05,2.3792155e-07,0.1887509,3.652093e-24
0,0,0.6687641143798828,1.0,1.0267846e-15,0.0,9.394086e-18,8.087162e-39
0,0,0.6692409515380859,1.0,4.416624e-28,7.653264e-25,3.848526e-16,4.6044e-41
0,0,0.6685256958007812,1.0,3.517556e-12,1.3359276e-10,1.1140483e-10,2.6333086e-33
2,2,0.6678104400634766,3.041357e-32,0.0,1.0,8.764671e-26,0.0
0,3,0.7047653198242188,0.0007952899,1.4031994e-14,5.904278e-14,0.9992047,6.6032936e-20
0,0,0.6742477416992188,0.99999964,1.5188092e-11,1.0429264e-14,4.15319e-07,1.2082112e-28
0,0,0.7505416870117188,1.0,2.423325e-13,6.996514e-22,2.7070813e-18,2.0159334e-26
0,3,0.7758140563964844,0.18926488,0.102540344,8.486069e-08,0.7081947,6.8184247e-28
0,0,0.690460205078125,1.0,6.358974e-11,5.2878715e-17,7.683778e-09,4.0122592e-23
0,0,0.6716251373291016,0.99999976,1.9861524e-07,2.9079336e-17,1.1812318e-10,8.970309e-22
0,0,0.6687641143798828,0.92856133,0.071429454,2.091659e-08,9.19124e-06,5.6547094e-20
2,2,0.6692409515380859,1.0947502e-16,1.4871622e-15,1.0,1.2816104e-19,2.3003855e-37
0,1,0.6692409515380859,9.886624e-09,1.0,5.5253675e-13,2.9931932e-14,9.4754864e-20
0,0,0.6704330444335938,1.0,5.5068794e-10,1.0909592e-11,4.967989e-13,6.01505e-17
1,0,0.6694793701171875,0.99998915,4.6684324e-08,8.850085e-06,1.9762958e-06,2.859008e-19
0,0,0.6697177886962891,1.0,2.3672702e-09,7.650715e-20,2.7318315e-27,7.782442e-34
0,0,0.6701946258544922,0.9973315,0.0026659865,2.5447039e-06,5.295996e-10,2.2184465e-25
0,0,0.7181167602539062,0.99921715,0.00078232714,2.2293682e-12,5.4071864e-07,2.8381148e-21
3,0,0.67138671875,1.0,8.755406e-28,1.0962497e-25,6.6013417e-13,1.00427625e-33
2,2,0.6706714630126953,7.3210985e-16,2.5349705e-18,1.0,3.9038767e-13,0.0
2,2,0.6690025329589844,8.694349e-24,4.8140354e-33,1.0,4.9500257e-21,2.539e-42
0,0,0.6699562072753906,1.0,8.689673e-09,4.4367247e-14,1.7626288e-16,2.7181616e-27
0,0,0.6701946258544922,1.0,4.7759513e-26,7.167639e-18,6.972306e-19,5.346235e-28
0,0,0.6699562072753906,1.0,5.7031376e-15,1.3127382e-20,5.355109e-15,1.0324894e-34
0,0,0.6704330444335938,1.0,8.887635e-17,0.0,9.73154e-14,0.0
2,2,0.6678104400634766,2.4662009e-24,0.0,1.0,2.6593228e-26,0.0
0,0,0.6701946258544922,1.0,3.9226223e-15,1.0872423e-16,1.6557697e-09,5.602251e-28
0,0,0.6682872772216797,1.0,1.25549765e-14,6.498315e-17,2.6253293e-11,6.6539728e-15
0,0,0.6682872772216797,1.0,4.485377e-18,1.6855403e-17,1.5384426e-12,1.1335537e-17
0,0,0.667572021484375,0.99998105,7.3984484e-06,1.162179e-05,2.6342842e-14,3.0075014e-28
0,0,0.6701946258544922,1.0,9.756461e-18,2.8486453e-17,4.6538762e-08,8.225686e-30
0,0,0.7023811340332031,1.0,6.090138e-16,2.761024e-16,1.8017651e-10,3.2862223e-16
0,0,0.67138671875,0.9315071,0.068492815,7.870845e-12,4.4204526e-08,2.9869776e-32
0,0,0.6699562072753906,1.0,2.9175454e-17,1.7361261e-20,8.506139e-17,1.4024475e-37
0,0,0.6697177886962891,0.9999968,3.165795e-06,7.646479e-15,2.1755552e-14,2.626538e-26
2,2,0.6694793701171875,4.540578e-22,1.10357665e-23,1.0,1.8625558e-20,7.172781e-18
2,3,0.6685256958007812,1.4544013e-14,0.0,6.063383e-25,1.0,3e-45
0,0,0.6694793701171875,1.0,1.1443059e-11,3.213099e-16,6.757459e-18,1e-44
0,3,0.6690025329589844,0.36167267,0.0018061511,1.0048582e-17,0.63652116,4.5705468e-23
0,0,0.6692409515380859,1.0,2.419082e-16,4.17101e-22,3.2899038e-20,5.0379873e-33
1,1,0.6690025329589844,3.0854742e-11,1.0,1.3750574e-10,1.6341394e-29,1.4200853e-20
0,0,0.6690025329589844,0.99999464,5.413921e-06,6.149442e-18,9.075246e-21,9.5e-44
0,0,0.6692409515380859,0.9999485,5.147391e-05,2.3109915e-12,5.2349193e-08,4.9715375e-19
0,0,0.6685256958007812,0.9999509,4.916045e-05,3.5240173e-16,1.3076818e-26,1.0564e-40
0,0,0.6697177886962891,0.9999999,4.9331345e-10,1.4336791e-07,9.8498764e-14,8.9586216e-13
0,0,0.6957054138183594,0.999616,0.00038391034,2.3290152e-14,1.07933745e-10,1.3429128e-34
0,0,0.6694793701171875,1.0,2.7666009e-24,5.1915513e-25,5.1056142e-11,8.9340877e-35
0,0,0.6687641143798828,0.9999982,1.8026249e-06,8.7125124e-20,1.04442e-25,8.037866e-34
0,0,0.6699562072753906,0.9999993,2.1276228e-13,4.2816916e-07,2.0072594e-07,4.8371702e-18
0,0,0.6678104400634766,0.9999963,3.745509e-06,6.2274234e-11,1.6825881e-10,9.971673e-21
0,0,0.6692409515380859,0.99999833,1.6544594e-06,1.8497938e-12,1.0339907e-09,4.1787063e-09
0,0,0.6706714630126953,0.99999654,3.4957236e-06,3.470127e-14,2.5400501e-13,4.3130547e-17
3,3,0.6694793701171875,0.12506914,1.8304208e-36,3.332204e-26,0.87493086,3.2413e-41
2,2,0.6692409515380859,8.962407e-23,2.3629055e-34,1.0,8.8221727e-32,0.0
0,0,0.6699562072753906,0.99926907,1.1130913e-07,1.767913e-21,0.000730764,1.4162164e-31
2,2,0.6692409515380859,7.735312e-22,0.0,1.0,0.0,0.0
0,0,0.6699562072753906,1.0,7.12096e-09,7.666426e-14,4.476214e-11,1.0267479e-25
0,0,0.6697177886962891,0.9916113,0.008388683,9.355756e-14,2.0633606e-14,1.5993128e-20
0,0,0.6711483001708984,1.0,3.7000698e-11,1.7686647e-15,1.0364654e-15,4.2748222e-32
0,0,0.6954669952392578,0.99999976,4.4603394e-13,2.4233873e-07,1.3181795e-17,1.323933e-34
0,0,0.6704330444335938,1.0,1.3712925e-08,1.1356169e-08,1.0077126e-11,4.9584037e-26
0,0,0.6692409515380859,0.99999976,1.4648935e-11,2.8431495e-07,1.5065802e-13,1.081152e-12
0,0,0.6709098815917969,0.99999785,4.0248422e-09,2.0966e-06,2.8772217e-12,6.328997e-12
0,0,0.6699562072753906,0.9689744,0.031024896,4.302541e-11,6.904425e-07,7.126416e-33
0,0,0.6704330444335938,0.9999999,8.6627196e-08,9.4899484e-14,4.89884e-08,1.4166342e-11
0,0,0.6694793701171875,1.0,8.782411e-18,3.8415266e-25,9.5401196e-20,1.8785324e-27
0,0,0.6697177886962891,1.0,1.04305016e-10,4.6078807e-21,1.4170558e-19,4.8400924e-32
0,0,0.6690025329589844,1.0,5.190017e-21,5.689649e-13,1.0688115e-23,7.3324563e-28
2,2,0.6694793701171875,7.0560975e-22,0.0,1.0,4.622476e-21,1.483e-42
0,0,0.6701946258544922,1.0,8.672672e-12,1.816006e-19,1.4048536e-12,2.4628548e-23
0,0,0.67138671875,0.77887166,0.00018693283,5.2648742e-05,0.22088875,1.4609639e-30
0,0,0.6728172302246094,0.99999976,2.5526109e-07,3.9345886e-26,8.3415514e-09,2.48627e-40
0,0,0.6999969482421875,0.99983656,4.432458e-13,2.0426906e-16,0.00016344803,3.905706e-23
0,0,0.6704330444335938,0.9999994,9.314637e-13,5.8223236e-07,2.1829587e-15,4.493273e-31
0,0,0.6704330444335938,1.0,2.481629e-10,1.7093605e-08,9.9505046e-14,5.171362e-13
0,0,0.6699562072753906,0.9999999,7.2503944e-08,8.814347e-10,3.7305267e-11,6.1460557e-16
0,0,0.6692409515380859,0.9999999,1.08318595e-07,1.6202658e-14,2.847886e-12,2.8089846e-27
0,0,0.6704330444335938,0.9999999,7.407905e-16,1.244945e-19,6.014538e-08,4.5288403e-18
0,1,0.6699562072753906,0.053930555,0.94606,9.009594e-06,4.819515e-07,1.0902282e-26
0,0,0.6706714630126953,1.0,5.811999e-10,8.140213e-24,6.2155975e-28,3.9915737e-23
0,0,0.6709098815917969,0.9999999,7.851414e-19,9.967439e-08,1.678486e-20,7.881329e-27
0,0,0.6697177886962891,0.99999976,1.2467201e-11,2.9486785e-07,4.245114e-14,9.2082056e-14
0,0,0.6699562072753906,0.9999945,1.2279201e-09,5.4859456e-06,4.146565e-10,1.05950754e-19
0,2,0.6697177886962891,0.16229546,1.5018983e-16,0.83765644,4.8111644e-05,5.820289e-12
0,0,0.6687641143798828,1.0,1.6988068e-08,1.5672131e-15,2.1051704e-11,1.4557409e-15
0,0,0.6704330444335938,1.0,3.3613446e-08,2.8232904e-11,2.2059188e-10,4.204388e-26
0,0,0.6976127624511719,1.0,9.417899e-13,4.7801835e-17,1.0152972e-25,2.4010431e-24
0,0,0.6699562072753906,1.0,4.203302e-09,1.4060733e-12,1.5066368e-11,9.153846e-19
0,0,0.6701946258544922,0.9999999,2.2149829e-14,1.8830506e-14,8.439594e-08,9.391908e-31
0,0,0.6694793701171875,0.9999956,3.2237054e-08,7.0992734e-12,4.3620603e-06,2.1485175e-29
0,0,0.6694793701171875,0.9995571,4.5238092e-05,1.4191178e-09,0.0003976549,8.8209906e-24
0,0,0.6687641143798828,0.8834522,0.101120114,2.8288344e-10,0.0154277785,7.433634e-29
0,0,0.6699562072753906,1.0,1.9166581e-08,3.031815e-15,4.17564e-12,1.8135427e-25
0,0,0.6690025329589844,0.99631965,0.003680355,4.781879e-13,1.3831534e-14,5.8367644e-31
2,2,0.6694793701171875,9.8259186e-21,1.2894984e-23,1.0,4.1590007e-36,3.623047e-30
0,0,0.6692409515380859,1.0,1.9558695e-09,2.3009757e-28,7.261406e-17,6.7580993e-34
0,1,0.6699562072753906,0.0043852753,0.99561477,3.8075002e-19,4.615999e-17,2.513e-42
0,0,0.6697177886962891,1.0,8.234753e-09,3.0458053e-16,1.7908312e-15,1.1190757e-30
0,0,0.6704330444335938,0.9999995,4.2485019e-07,7.1888415e-15,4.9846347e-13,1.271167e-17
0,0,0.6704330444335938,0.99999976,8.248863e-10,2.3296131e-07,8.4389364e-11,9.5206225e-14
0,0,0.6959438323974609,0.9989171,0.0010829216,6.123503e-14,1.7769058e-10,7.800163e-32
0,0,0.6706714630126953,1.0,2.5387439e-11,1.8374958e-20,2.6480767e-18,4.1263268e-25
0,0,0.6692409515380859,1.0,6.2838774e-09,2.6837587e-20,2.0329672e-21,3.7460733e-32
0,0,0.6697177886962891,1.0,3.5438063e-08,1.2174982e-27,4.352475e-16,3.0495818e-32
0,0,0.6701946258544922,0.99990606,1.8261429e-09,7.118948e-20,9.398077e-05,2.3384521e-29
0,0,0.6692409515380859,1.0,5.542521e-20,1.4958134e-11,2.2827761e-18,1.7413777e-29
0,0,0.6701946258544922,1.0,1.0567098e-16,2.6177234e-19,1.1763605e-09,1.808017e-39
0,0,0.6699562072753906,0.8891346,0.11086537,3.5817982e-15,4.834331e-10,1.2007893e-26
1,2,0.6697177886962891,2.1492025e-11,2.67679e-13,1.0,1.2055848e-10,1.5366039e-08
2,2,0.6699562072753906,6.4344787e-09,1.8982737e-05,0.99998105,3.5069037e-09,1.1398399e-12
0,0,0.6692409515380859,0.99999833,1.6452329e-06,4.9438243e-15,5.515407e-21,8.8615715e-35
0,0,0.6699562072753906,1.0,6.610285e-10,3.6339175e-20,6.930566e-27,1.8007132e-33
0,0,0.6711483001708984,0.9999956,1.8931894e-08,4.7885453e-07,3.8891503e-06,8.011494e-10
0,0,0.6694793701171875,0.9999641,3.5922603e-05,5.799921e-17,1.2923578e-15,4.0011412e-38
0,0,0.6957054138183594,1.0,3.2547344e-08,1.2699991e-14,5.485495e-21,1.8303983e-31
0,0,0.6709098815917969,0.9987915,0.0012085049,1.6246636e-10,5.0778903e-10,1.7350541e-19
0,0,0.6701946258544922,0.99996495,4.307963e-20,1.9888774e-18,3.5052857e-05,2.2361035e-18
0,0,0.6694793701171875,0.999985,1.5014364e-05,1.7100999e-13,2.228252e-13,1.6979864e-28
1,0,0.6692409515380859,0.9551439,1.2903352e-10,0.04485603,7.1981754e-10,6.4326283e-22
2,3,0.6685256958007812,1.3253126e-05,7.0709356e-29,5.3104042e-05,0.9999336,3.5694593e-29
0,0,0.6690025329589844,0.9997303,0.0002696652,6.895759e-13,4.18918e-09,1.2204056e-27
0,0,0.6694793701171875,1.0,4.2764405e-08,7.6105486e-19,4.9037866e-23,9.042278e-24
0,0,0.6690025329589844,0.9999976,3.3935939e-18,2.680348e-18,2.3351413e-06,3.072125e-11
0,0,0.6697177886962891,0.99999547,6.063964e-15,6.4373616e-08,9.90954e-12,4.3766354e-06
2,2,0.6699562072753906,4.732043e-20,7.352166e-23,1.0,2.748389e-19,1.2499402e-36
0,0,0.6682872772216797,1.0,1.1047648e-30,4.0790973e-16,4.38305e-08,3.7080918e-13
1,0,0.6687641143798828,0.99735594,1.7020034e-09,0.002638819,5.262464e-06,5.504958e-17
0,0,0.6680488586425781,1.0,3.0625488e-15,4.528522e-14,5.6360142e-12,2.1343186e-24
0,0,0.7009506225585938,0.99999654,2.4286371e-06,9.497372e-15,9.735262e-07,8.630257e-29
0,0,0.6690025329589844,0.9999356,6.129359e-05,2.4689118e-06,5.850627e-07,3.9585392e-13
1,0,0.6692409515380859,0.9928489,0.0014460359,0.005704774,2.7255211e-07,1.572821e-17
0,0,0.6706714630126953,0.9984048,2.7307694e-15,3.2563544e-16,0.0015951701,6.429326e-20
0,0,0.7531642913818359,0.99999976,2.6609814e-07,2.5206648e-14,1.4663938e-12,2.9935332e-15
2,1,0.6718635559082031,2.7244691e-11,0.9996642,0.00033578905,5.3381586e-23,3.8695154e-13
0,0,0.6692409515380859,1.0,5.9725945e-16,1.1192739e-08,8.028338e-11,1.0726825e-25
0,0,0.6701946258544922,0.9999987,8.259443e-08,4.663431e-08,1.1824636e-06,1.3122483e-16
0,0,0.6701946258544922,1.0,4.516578e-24,7.299388e-20,1.5432322e-13,4.2323446e-16
0,0,0.6699562072753906,1.0,1.5673277e-10,1.9215425e-14,5.4914967e-16,4.5584724e-21
0,0,0.6687641143798828,1.0,2.1006175e-19,3.2868486e-09,5.853032e-12,1.0466417e-28
0,0,0.67138671875,1.0,3.5389555e-16,3.937703e-08,9.181804e-16,2.72481e-24
0,1,0.6706714630126953,0.32804543,0.6718959,5.8478294e-05,1.9051086e-07,4.7887905e-27
0,0,0.701904296875,1.0,1.0914998e-12,3.982191e-15,2.687422e-08,2.145263e-33
0,0,0.67138671875,0.99999666,1.5245782e-10,8.486323e-21,3.344996e-06,7.250142e-25
0,1,0.6723403930664062,0.00046859623,0.9995314,1.4099907e-22,5.3297214e-14,1.2e-43
0,0,0.6697177886962891,1.0,1.429739e-20,3.023766e-14,3.4842493e-08,6.449253e-22
2,2,0.6692409515380859,1.0332915e-15,1.0542876e-28,1.0,1.997586e-32,0.0
2,2,0.6687641143798828,3.45718e-20,2.0169783e-20,1.0,9.234792e-20,6.8245912e-37
0,0,0.6694793701171875,1.0,2.0035421e-21,3.5063863e-10,3.565962e-17,1.4823898e-08
0,0,0.6697177886962891,0.9963129,1.3016418e-12,2.1304793e-14,0.003687135,5.4354208e-18
0,0,0.6699562072753906,1.0,9.5948425e-17,0.0,4.104683e-15,0.0
2,2,0.6692409515380859,5.8681254e-11,9.0928404e-11,1.0,8.3628285e-11,2.654186e-17
0,0,0.6682872772216797,1.0,8.891472e-12,2.8279722e-35,1.3100695e-16,0.0
0,0,0.6690025329589844,0.9999908,9.139875e-06,3.045516e-12,1.6074169e-12,4.1910873e-20
0,0,0.6699562072753906,0.9999857,3.4606217e-08,1.4338325e-05,2.8241118e-11,4.0022197e-08
2,2,0.6697177886962891,1.6235903e-27,0.0,1.0,1.5035886e-33,4.0090943e-37
0,0,0.6999969482421875,1.0,5.3235556e-24,3.3914176e-24,2.7982925e-18,1.366e-41
0,0,0.6690025329589844,1.0,5.0113053e-11,1.3000758e-19,4.43089e-25,6.259492e-37
1,0,0.6692409515380859,0.9999893,3.9252693e-10,1.04067385e-05,4.1300686e-07,1.0962625e-18
0,0,0.6687641143798828,0.9935516,0.006448414,1.15619125e-14,6.307849e-09,4.4523613e-24
0,0,0.6682872772216797,0.99999964,3.595558e-07,2.9457387e-16,1.2492949e-12,1.3026158e-28
0,0,0.6699562072753906,1.0,2.080219e-08,3.820464e-08,7.778808e-15,4.990889e-12
0,3,0.6678104400634766,0.23369713,0.03334749,1.0149325e-08,0.73295534,1.186074e-23
0,0,0.6701946258544922,1.0,6.0339254e-11,3.8162304e-13,4.0532737e-11,1.6724505e-30
2,2,0.6690025329589844,3.6207026e-28,0.0,1.0,6.487289e-26,0.0
0,0,0.667572021484375,1.0,2.929273e-35,2.8561645e-13,7.7997886e-22,3.8e-44
2,2,0.6697177886962891,1.01591195e-35,0.0,1.0,0.0,0.0
0,0,0.6690025329589844,1.0,3.4908163e-11,4.5671933e-21,1.953984e-19,1.5100503e-24
0,0,0.6680488586425781,1.0,9.877571e-14,4.1902077e-16,5.0163956e-10,2.4595937e-33
0,0,0.6685256958007812,0.99999845,1.5642285e-06,1.034264e-11,2.730862e-09,7.0505125e-23
0,0,0.6992816925048828,1.0,9.758469e-11,9.084438e-21,1.9040575e-20,1.2533107e-29
0,3,0.6697177886962891,0.24739155,2.2075308e-06,2.6378435e-12,0.7526062,2.4574727e-36
0,0,0.6704330444335938,1.0,1.9782941e-13,3.3748022e-20,1.7431564e-17,1.8210913e-26
0,0,0.667572021484375,1.0,7.1856784e-11,3.236087e-25,5.172068e-30,1.6293125e-32
0,0,0.6697177886962891,1.0,4.744127e-08,9.441492e-10,1.0499355e-08,1.0482581e-24
0,0,0.6692409515380859,0.9999368,1.7635407e-15,6.318369e-05,6.763413e-11,2.4012401e-31
1,1,0.6687641143798828,1.3627383e-11,1.0,8.093973e-19,6.0257597e-30,6.851966e-34
0,0,0.6704330444335938,0.9999999,1.04973964e-07,3.4236658e-17,4.6932954e-11,1.9915063e-17
0,0,0.6687641143798828,1.0,6.3403317e-16,2.1016547e-16,3.839372e-18,3.3712804e-25
0,0,0.6690025329589844,1.0,5.7019743e-11,2.2660391e-11,1.3660548e-17,2.0917185e-18
0,0,0.6690025329589844,1.0,4.428737e-13,8.0823534e-16,2.0451655e-08,2.71745e-13
0,0,0.6692409515380859,0.6174018,0.38259745,5.410095e-07,2.0408754e-07,2.8204164e-14
0,0,0.6687641143798828,0.9999945,3.3320035e-07,5.1685124e-06,5.0423494e-12,1.6798544e-12
0,0,0.6685256958007812,1.0,1.02095277e-16,1.3592196e-09,3.4839164e-16,8.288837e-31
0,3,0.6971359252929688,1.0327409e-09,0.00013541177,1.4596897e-18,0.9998646,4.602999e-31
0,0,0.6697177886962891,0.9957753,0.004219809,5.2380766e-09,4.9804717e-06,7.6174483e-16
0,0,0.6682872772216797,1.0,5.1716975e-13,1.452342e-21,1.6589114e-21,1.2336324e-26
0,1,0.6680488586425781,3.8289116e-08,1.0,3.0825375e-12,8.848747e-21,1.2882133e-18
0,0,0.6680488586425781,1.0,3.1902723e-16,8.922642e-13,6.328389e-14,3.37832e-40
0,0,0.6690025329589844,0.999997,2.3865343e-06,7.2824133e-09,6.047515e-07,1.8120521e-12
2,2,0.6692409515380859,3.6617992e-15,6.225906e-25,1.0,5.111298e-25,0.0
0,0,0.6682872772216797,1.0,6.7016193e-12,7.5330475e-13,3.370888e-14,2.6199983e-21
0,3,0.6694793701171875,0.013095683,0.0011684177,5.5547707e-06,0.9857304,5.8648575e-14
0,0,0.6685256958007812,1.0,4.1479895e-13,3.8601167e-21,3.770311e-20,2.1716766e-26
0,0,0.667572021484375,0.99999976,1.195002e-08,7.5587724e-11,2.4152934e-07,3.6628823e-18
0,0,0.6692409515380859,1.0,3.509464e-10,1.4407639e-15,1.943044e-10,2.4508523e-28
2,2,0.6694793701171875,0.10095193,0.0,0.89904743,6.658996e-07,3.1459e-40
0,0,0.6697177886962891,1.0,0.0,3.2485458e-15,1.9952312e-26,0.0
0,0,0.6992816925048828,0.9803429,2.1358884e-09,5.7270825e-14,0.019657044,5.884616e-15
0,1,0.6694793701171875,0.01599075,0.59470046,0.38930875,5.8089944e-10,1.4899048e-18
0,0,0.6692409515380859,0.99999976,2.9403918e-07,2.7455275e-19,4.907195e-10,7.9059634e-26
0,0,0.6690025329589844,0.9990865,0.0009134728,9.9561636e-17,5.1714724e-27,1.632807e-38
0,0,0.6690025329589844,0.9999999,9.499892e-10,1.6643075e-07,2.6100668e-14,1.1231575e-19
0,0,0.6699562072753906,0.9999883,7.439398e-15,1.1629659e-16,1.1672948e-05,1.4082516e-13
1,1,0.6694793701171875,2.4320916e-12,1.0,3.162206e-19,2.0326273e-35,4.269743e-37
0,1,0.6699562072753906,4.3868805e-08,1.0,9.566693e-11,3.6652653e-15,4.696438e-19
0,0,0.6711483001708984,1.0,7.746474e-22,3.3889286e-20,0.0,2.796e-42
0,0,0.6701946258544922,0.99999964,2.019773e-12,3.9766877e-07,4.83724e-13,1.8409566e-17
0,1,0.6694793701171875,0.00040871877,0.9995913,1.2515423e-14,4.972432e-13,1.2735327e-21
2,2,0.6687641143798828,1.15448895e-08,1.2606794e-13,0.9999678,3.2217642e-05,2.9400392e-11
0,0,0.6718635559082031,0.9898309,1.2759383e-14,0.00082870014,0.009340431,5.869145e-15
0,0,0.6945133209228516,1.0,2.0935893e-08,9.67617e-20,1.0057138e-26,1.3449327e-24
0,0,0.6897449493408203,1.0,4.821971e-12,1.5633988e-21,2.0119106e-16,1.496482e-17
0,0,0.6763935089111328,0.9942221,8.1108e-08,6.406554e-17,0.0057778046,2.2851627e-18
0,0,0.6735324859619141,1.0,6.6979663e-19,7.236586e-10,3.5497414e-18,3.629818e-34
0,0,0.6709098815917969,1.0,3.3890275e-15,1.2558908e-21,2.6647473e-17,2.870098e-26
0,1,0.6699562072753906,0.022220815,0.9777695,2.0249215e-11,9.6584035e-06,1.4724119e-20
0,0,0.6697177886962891,0.99998057,1.938338e-05,5.6889032e-15,1.0661833e-10,6.416728e-17
0,0,0.6694793701171875,0.9994103,5.2216065e-26,0.00058977155,9.895924e-12,1.3353005e-13
0,0,0.6690025329589844,0.9999975,2.5570357e-06,2.0221957e-21,4.7057424e-23,1.3710808e-29
0,0,0.6697177886962891,0.97524375,0.024748288,3.932554e-13,7.913313e-06,9.736144e-26
0,0,0.6701946258544922,0.999998,1.4559459e-08,5.3649896e-13,2.0482612e-06,1.1370368e-26
0,0,0.6694793701171875,0.99999905,9.220721e-16,3.8715076e-16,9.82669e-07,9.956721e-14
0,0,0.6697177886962891,0.9999999,1.3384442e-07,2.667548e-14,3.6900654e-09,5.407374e-29
0,0,0.6701946258544922,1.0,9.015559e-15,3.5066263e-37,4.578162e-15,0.0
0,0,0.70953369140625,0.9999999,9.223909e-13,5.259322e-18,8.690672e-08,5.4958995e-30
0,0,0.6716251373291016,0.98636836,0.013221705,1.0436202e-12,0.000409933,1.502271e-31
0,0,0.6704330444335938,0.99241674,0.007582776,4.7471622e-07,7.344789e-13,1.4266518e-21
0,0,0.6694793701171875,1.0,1.0264987e-15,1.9401572e-12,1.782909e-13,3.2842716e-36
0,0,0.6701946258544922,0.99999774,2.2782913e-06,9.52932e-15,3.3246873e-15,7.44441e-22
0,0,0.6718635559082031,1.0,2.1081044e-14,3.8147473e-16,2.338358e-08,2.7125008e-12
0,0,0.6709098815917969,1.0,1.9074762e-18,1.3175128e-22,3.432207e-16,1.646462e-26
0,0,0.6716251373291016,1.0,1.1029658e-24,5.805259e-19,5.1835734e-11,9.522971e-17
0,0,0.6706714630126953,1.0,1.0758282e-09,1.3023512e-12,4.758742e-13,2.204964e-21
0,0,0.6694793701171875,1.0,4.6270426e-22,2.8004288e-25,2.125599e-18,8.0948514e-23
0,0,0.6699562072753906,1.0,5.0657905e-09,5.8447323e-12,2.1463387e-15,3.7593774e-22
2,2,0.6706714630126953,9.138441e-31,0.0,1.0,2.6340624e-18,3.1e-43
0,0,0.6694793701171875,1.0,2.5097386e-09,1.9152473e-08,2.1495081e-09,2.1710276e-21
0,0,0.6701946258544922,1.0,1.2568701e-26,2.5185301e-23,2.6565819e-36,4.6422787e-31
0,0,0.701904296875,1.0,4.3693212e-11,4.700581e-18,1.2134953e-14,6.174877e-28
0,0,0.6721019744873047,0.9997868,0.00021321948,1.1084805e-14,2.5020874e-09,4.798279e-29
0,0,0.6694793701171875,1.0,1.8324677e-11,4.0063274e-22,5.0904505e-28,3.0494524e-33
0,0,0.6697177886962891,0.9999933,2.982271e-07,6.279723e-06,1.15425294e-10,1.1669515e-08
0,0,0.6692409515380859,0.9998727,1.94768e-17,0.00012733691,8.5820527e-13,2.134271e-20
0,4,0.6704330444335938,0.0004300475,9.083087e-13,6.4495864e-10,0.019300919,0.980269
0,0,0.6699562072753906,1.0,6.9634546e-19,2.9591688e-21,1.0374619e-08,5.6018616e-22
0,0,0.8006095886230469,0.99999964,3.975679e-07,3.953552e-15,1.0070969e-12,3.1593022e-17
0,0,0.6766319274902344,0.99999976,2.636811e-07,4.6617718e-20,4.6447628e-29,1.5282937e-38
0,0,0.6716251373291016,1.0,2.3806516e-08,7.6018264e-16,3.8669003e-19,8.219979e-37
0,0,1.1701583862304688,1.0,2.411387e-10,4.7198296e-16,3.8398586e-24,8.089011e-32
0,0,1.2576580047607422,0.99999416,3.666634e-12,1.9253999e-16,5.80714e-06,3.8892778e-25
0,0,0.7617473602294922,0.99976426,0.00023570372,2.932069e-13,6.228443e-13,3.3977163e-22
2,2,0.6794929504394531,7.804838e-17,8.280553e-17,1.0,7.619453e-15,1.4854687e-35
0,0,0.6704330444335938,0.5028214,0.49717855,2.693207e-08,6.6941446e-08,9.672813e-17
0,0,0.6704330444335938,0.9989759,0.0010239428,2.2259272e-09,1.7399688e-07,2.5901105e-21
0,0,0.6699562072753906,0.99999964,8.31364e-21,3.1321085e-07,2.5941299e-14,2.6438072e-17
0,0,0.6701946258544922,1.0,2.2700253e-13,7.353895e-18,2.4396555e-12,2.1242531e-33
0,0,0.6709098815917969,1.0,3.8488893e-14,3.3301693e-13,7.4363085e-11,9.933521e-35
0,3,0.6711483001708984,0.016318109,6.0080505e-09,1.2560497e-06,0.9836806,7.244287e-35
0,0,0.6701946258544922,0.99999976,2.2763206e-07,2.453776e-16,4.601068e-12,1.2647188e-26
0,0,0.6704330444335938,0.99998665,5.846171e-06,5.300153e-12,7.468081e-06,1.0556335e-28
0,0,0.6725788116455078,1.0,4.8115623e-08,1.0456536e-10,4.3646482e-11,3.1986265e-19
0,0,0.6709098815917969,0.9999974,2.628937e-06,1.1991182e-19,7.3577927e-29,1e-44
0,0,0.6697177886962891,1.0,3.3797916e-14,9.1278185e-15,1.1557345e-10,1.0994795e-38
0,0,0.7159709930419922,0.99999464,2.6770276e-06,3.4382104e-08,2.7243111e-06,8.926039e-19
0,0,0.6704330444335938,0.99999034,9.614707e-06,4.673025e-16,2.9522615e-14,4.4342432e-26
0,0,0.6711483001708984,0.72220796,1.7693131e-09,1.1712604e-11,0.27779105,9.1169545e-07
0,0,0.6706714630126953,1.0,3.581343e-15,2.8863076e-16,9.801077e-14,2.2725591e-32
0,0,0.6704330444335938,0.99999917,5.7288907e-09,3.5189224e-08,8.2369695e-07,4.3334004e-17
2,2,0.6699562072753906,4.478419e-33,0.0,1.0,1.6832229e-22,0.0
0,0,0.6732940673828125,0.9999999,6.51521e-08,2.3058906e-10,4.5554774e-08,3.2715568e-27
0,0,0.6699562072753906,0.9999925,7.4635323e-06,1.5659025e-10,2.607856e-08,6.4656105e-22
0,0,0.6711483001708984,0.99956304,0.00043693604,2.1992025e-16,4.5275936e-23,8.903633e-39
0,0,0.6697177886962891,0.9999994,5.4408645e-07,6.411974e-11,3.6245854e-08,6.038792e-11
0,1,1.041412353515625,1.9803532e-19,1.0,6.215644e-36,0.0,1.831577e-18
0,0,0.6875991821289062,1.0,4.7007625e-17,7.456114e-28,2.7749205e-23,7.596465e-23
0,0,0.6709098815917969,1.0,4.760461e-08,4.0017015e-21,1.300796e-10,7.4129595e-25
0,0,0.7107257843017578,0.99996674,1.0734633e-14,1.7235303e-13,3.330786e-05,3.9507483e-25
0,0,0.6721019744873047,0.9999995,5.3251137e-10,5.796138e-12,4.3769643e-07,3.0370422e-32
0,0,0.6747245788574219,0.9999336,6.6363784e-05,2.0941879e-13,1.0623208e-11,2.2792778e-15
0,1,0.6794929504394531,2.1629493e-08,1.0,1.922864e-16,5.819452e-18,2.5878943e-21
0,0,0.6814002990722656,0.9999988,1.2461597e-06,1.3698196e-11,7.821916e-15,5.6379356e-22
0,0,0.6711483001708984,1.0,0.0,8.4670313e-17,9.01369e-25,0.0
0,3,0.6699562072753906,0.00059669395,9.639667e-08,0.013574069,0.9858291,5.4230874e-14
0,0,0.6706714630126953,0.9964921,2.8084303e-05,0.0012639806,0.0022158895,1.4051748e-26
2,0,0.6701946258544922,0.9973289,0.002669287,1.7832219e-06,3.230316e-08,1.4251454e-23
0,1,0.6704330444335938,1.5708121e-06,0.99999845,7.1333505e-23,5.0191103e-31,0.0
0,0,0.6701946258544922,1.0,8.956416e-10,4.2137127e-13,4.3800334e-08,4.1123948e-22
0,0,0.6697177886962891,1.0,1.4656599e-22,9.16503e-11,3.0422575e-20,9.5175526e-26
0,0,0.6706714630126953,0.9999999,1.158497e-07,1.4527451e-15,1.0754325e-16,4.4629403e-22
0,0,0.6711483001708984,1.0,3.9571283e-08,3.2427703e-11,5.4153723e-11,4.4091838e-20
2,2,0.7109642028808594,0.00019994254,1.4207428e-22,0.9998,1.3544787e-13,8e-45
0,0,0.6721019744873047,0.9994092,1.7190807e-05,0.00057361275,3.6272477e-10,1.2794351e-22
0,0,0.6718635559082031,0.99997926,1.3943849e-05,5.7059704e-14,6.81724e-06,9.913239e-30
2,2,0.6718635559082031,3.1159095e-10,3.4049226e-33,1.0,2.4201799e-24,7.411412e-23
0,0,0.6690025329589844,1.0,2.202566e-08,3.143543e-17,8.913636e-11,9.868987e-17
0,0,0.6697177886962891,0.6897604,0.31023887,2.4229352e-13,7.007293e-07,4.851644e-39
0,0,0.6697177886962891,1.0,7.241181e-26,4.048087e-20,2.456126e-17,9.21156e-37
0,0,0.6697177886962891,0.9999708,8.416192e-14,9.733963e-22,2.921189e-05,1.7784408e-25
0,0,0.6694793701171875,0.9999995,4.197202e-21,4.8895805e-07,3.5879032e-16,2.56e-43
0,1,0.6704330444335938,4.371719e-05,0.99995625,7.329523e-24,6.921225e-20,9.25e-43
0,0,0.6704330444335938,1.0,3.0233625e-14,5.66173e-17,4.944929e-14,9.4887204e-36
1,1,0.6704330444335938,4.1670148e-16,1.0,1.1804372e-25,6.7888197e-35,2.808e-42
0,0,0.6706714630126953,0.9999906,9.360876e-06,6.1007705e-18,1.2445994e-14,2.311208e-23
0,0,0.7150173187255859,0.9992354,0.000764656,2.5712243e-18,3.3703947e-28,7.777102e-37
0,0,0.6721019744873047,1.0,1.2819052e-13,7.1230596e-22,6.43417e-36,4.3453652e-35
0,0,0.6701946258544922,1.0,2.2801372e-12,4.8572707e-19,5.4388672e-12,6.708125e-39
0,0,0.6711483001708984,1.0,3.3265746e-10,7.173565e-21,9.798182e-21,4.866048e-39
0,3,0.6711483001708984,4.872419e-07,4.841694e-13,2.5477587e-07,0.8967744,0.10322489
0,0,0.6699562072753906,1.0,2.9953835e-12,7.2475794e-22,1.0985052e-19,2.1157922e-27
0,0,0.6701946258544922,0.99933076,0.0006692768,2.3423414e-18,3.1342852e-22,1.590056e-39
0,0,0.6716251373291016,0.9012537,0.0056566806,2.9104602e-05,0.09306046,9.726136e-28
0,0,0.6704330444335938,1.0,1.0925298e-10,3.984966e-18,4.1789123e-13,2.1489383e-20
0,0,0.6697177886962891,1.0,1.00124546e-13,1.482181e-19,6.8736123e-09,2.720252e-23
0,0,0.6725788116455078,1.0,9.600625e-10,2.3060874e-15,4.4871203e-19,2.4996168e-23
0,0,0.6701946258544922,0.9998901,0.00010989668,2.5369413e-14,7.407195e-11,1.7461843e-26
0,3,0.6709098815917969,0.0012596416,0.00019889051,1.153722e-12,0.9985415,3.10402e-33
0,0,0.6704330444335938,0.9999876,6.3526767e-07,1.1780771e-05,4.807074e-11,1.6495795e-10
0,0,0.6976127624511719,0.99999774,2.4035677e-16,2.1649312e-18,2.2911445e-06,1.0944464e-17
0,1,0.6709098815917969,0.00032994946,0.99967,7.220943e-12,1.5205629e-08,8.02937e-13
0,0,0.6701946258544922,0.9999881,1.1907647e-05,6.2090047e-21,2.3229897e-19,2.400019e-37
0,0,0.6704330444335938,0.99999857,3.5704088e-07,9.309039e-08,9.802192e-07,5.870676e-20
0,0,0.6697177886962891,0.9727265,5.3030988e-08,4.726909e-10,0.02727282,5.224032e-07
0,0,0.6701946258544922,1.0,4.7407165e-12,8.819395e-21,5.875154e-24,4.810028e-35
0,0,0.67138671875,1.0,5.055812e-08,1.7987224e-18,1.1068173e-18,4.3660207e-34
0,0,0.6687641143798828,0.99998844,1.1547699e-05,3.0635778e-22,1.4275059e-18,4.68e-43
0,1,0.6721019744873047,0.00011543146,0.9996518,1.9802587e-13,0.00023268836,4.4976975e-30
0,0,0.6704330444335938,0.9999957,5.678701e-19,4.319015e-06,1.1551337e-19,3.4619728e-25
0,0,0.6716251373291016,1.0,2.8703885e-11,3.3213582e-13,3.5211088e-11,5.4407163e-26
0,0,0.6699562072753906,1.0,3.8870067e-15,9.121622e-15,3.626105e-10,1.7009498e-08
0,3,0.6697177886962891,4.185677e-13,2.3812415e-16,1.9904975e-16,1.0,2.306833e-39
2,2,0.6706714630126953,7.386739e-32,0.0,1.0,0.0,2.4890184e-37
0,0,0.7050037384033203,1.0,1.1817187e-14,2.5880323e-14,2.6596827e-11,1.8910968e-31
0,0,0.6699562072753906,1.0,9.163341e-21,1.0611071e-19,1.0069106e-09,2.4841584e-32
0,0,0.6697177886962891,1.0,6.641839e-11,2.57445e-13,7.1017424e-12,1.213712e-38
2,2,0.6694793701171875,1.1850704e-18,6.3474944e-16,1.0,1.2538129e-14,3.0427761e-37
0,0,0.6699562072753906,1.0,2.867349e-09,1.0947251e-16,2.3244627e-11,4.1752088e-31
2,2,0.6699562072753906,1.4866751e-14,0.0,1.0,5.7980777e-15,1e-45
0,0,0.6706714630126953,0.99989676,9.12893e-15,7.272204e-05,3.0525825e-05,3.9516605e-11
2,2,0.6718635559082031,4.3814577e-25,0.0,1.0,0.0,0.0
0,0,0.6716251373291016,1.0,4.9561493e-09,1.2133142e-15,1.276137e-11,9.284287e-18
0,0,0.6699562072753906,0.99997854,2.1485523e-05,2.8218128e-08,1.9085337e-11,7.432259e-16
0,0,0.6697177886962891,0.9828493,5.5570263e-06,7.370594e-14,0.017145183,2.8697534e-30
0,0,0.6694793701171875,0.9983877,2.8950903e-05,8.248696e-13,0.0015834161,2.4375073e-15
0,0,0.6704330444335938,0.98796,0.012040046,1.2960211e-15,2.4911864e-10,9.562658e-20
0,0,0.6690025329589844,0.9999999,3.2931882e-23,3.3574348e-16,7.307219e-08,1.571841e-30
2,2,0.7035732269287109,8.537755e-28,7.2287175e-38,1.0,0.0,5.458e-42
0,0,0.6735324859619141,0.9999988,1.1838337e-06,2.579388e-12,2.045278e-10,9.075258e-19
0,3,0.6718635559082031,0.4055163,1.3931799e-10,6.3077694e-09,0.5944734,1.0281902e-05
0,0,0.6701946258544922,0.9939711,0.006028929,2.5962646e-12,5.0738197e-10,1.9468162e-35
0,0,0.6704330444335938,1.0,3.6717383e-26,8.8798445e-16,8.260412e-20,5.46815e-40
0,0,0.6694793701171875,1.0,1.3972669e-12,1.4021114e-21,5.256552e-19,1.9285022e-27
0,0,0.6690025329589844,1.0,4.036875e-09,1.6669542e-22,1.5178834e-22,5.0618477e-36
0,0,0.6678104400634766,0.99999964,1.5809295e-08,3.4298497e-16,3.889446e-07,5.569951e-33
0,0,0.6685256958007812,0.9999995,4.552004e-07,6.6450973e-21,1.1752368e-27,5.674073e-39
2,2,0.6704330444335938,8.031731e-24,4.8461e-31,1.0,3.739112e-37,2.1207116e-36
0,0,0.6694793701171875,0.99781513,0.0021848672,4.184039e-11,6.2404686e-11,3.6718166e-26
0,0,0.6699562072753906,0.99999726,2.79858e-09,2.775519e-06,5.2486495e-09,1.8131582e-09
0,0,0.6690025329589844,1.0,6.2472125e-13,5.203345e-11,9.226397e-23,6.3445925e-30
0,0,0.6711483001708984,1.0,0.0,3.5522004e-14,0.0,0.0
0,0,0.6709098815917969,1.0,1.8622996e-28,4.696718e-22,3.9119108e-21,1e-45
0,0,0.6709098815917969,0.9999999,8.2767945e-13,1.0374663e-07,3.914915e-19,3.6205837e-32
0,1,0.6690025329589844,0.079563,0.92043704,2.1529743e-10,3.0779301e-09,8.767128e-26
0,0,0.6687641143798828,0.9855481,0.0144507,1.2259776e-06,3.6452338e-11,7.828929e-24
0,0,0.6687641143798828,0.99999976,2.076696e-14,8.781768e-19,2.1180765e-07,6.2539215e-17
0,0,0.6728172302246094,0.99999666,3.2892071e-06,5.27489e-13,4.582545e-17,1.0034641e-27
0,0,0.6697177886962891,0.9997603,0.00023033783,2.146626e-12,9.388381e-06,3.100392e-28
0,0,0.6694793701171875,1.0,4.5536773e-13,4.392949e-09,5.7078953e-18,7.200829e-25
0,0,0.6699562072753906,0.9999999,1.120913e-07,5.0882956e-20,3.0773802e-19,3.8700022e-32
0,0,0.6690025329589844,0.9999999,7.821293e-16,7.693783e-08,4.7690448e-21,3.49e-43
0,0,0.6711483001708984,1.0,2.1569615e-21,1.3117227e-19,8.8723525e-18,1.3838574e-15
0,0,0.6699562072753906,0.9998448,0.00015516454,8.0364003e-16,8.567115e-12,5.281707e-25
0,0,0.6699562072753906,0.9999782,2.9329232e-26,1.4559469e-09,7.5186185e-12,2.1857397e-05
0,0,0.6990432739257812,0.9997882,3.7170935e-12,2.7457414e-20,0.00021174984,3.8473544e-33
0,0,0.67138671875,0.99999964,2.3282532e-13,4.8490614e-14,3.2556508e-07,2.5735067e-24
0,1,0.6697177886962891,0.31207144,0.6876001,0.00032849066,6.245971e-10,6.3143686e-17
0,0,0.6706714630126953,1.0,1.6221701e-11,6.0906104e-21,3.44763e-21,1.5866711e-25
0,0,0.6687641143798828,1.0,2.2144676e-18,1.1320632e-09,5.447476e-15,2.7440467e-15
0,0,0.7379055023193359,1.0,8.976511e-10,4.1334966e-17,3.4349728e-11,3.32373e-23
0,0,0.7898807525634766,0.99996626,6.485344e-09,8.262516e-08,3.362012e-05,6.40834e-18
0,0,0.8115768432617188,1.0,3.687688e-24,2.320482e-21,1.2573362e-17,1.6807807e-19
1,1,0.7998943328857422,1.3281119e-11,1.0,3.7574863e-29,2.650534e-32,0.0
1,1,0.8504390716552734,9.9967945e-09,1.0,1.2122589e-16,1.6400444e-17,9.961264e-34
0,0,1.066446304321289,1.0,7.40356e-11,3.0391537e-13,9.8616976e-11,2.185551e-30
0,0,1.1396408081054688,1.0,7.0266594e-14,5.7503286e-21,4.2102734e-21,9.550462e-27
0,0,1.0917186737060547,1.0,1.0888039e-14,2.618862e-19,6.3102606e-14,6.539793e-25
0,0,0.9944438934326172,0.9998399,1.1121372e-05,0.00014892995,2.3927444e-14,7.4599657e-25
0,0,0.8530616760253906,1.0,1.3946283e-12,1.5650167e-20,5.3623117e-20,3.453768e-26
0,0,0.7688999176025391,1.0,5.0238388e-20,9.168087e-23,3.443543e-13,4.013666e-31
0,0,0.7488727569580078,0.9999989,1.0566046e-07,1.011469e-06,1.3290178e-11,3.394235e-24
0,0,0.682830810546875,1.0,3.4834386e-08,5.866427e-29,3.7630608e-13,3.614871e-39
0,0,0.6735324859619141,0.9999988,4.6177044e-09,7.9028285e-07,3.8722885e-07,2.269383e-12
0,0,0.6690025329589844,0.9998436,0.00015636298,1.4488736e-12,9.452515e-11,1.7483298e-18
0,0,0.6697177886962891,0.97445256,1.4228044e-06,6.0476465e-18,0.025545964,3.9627232e-19
0,0,0.7183551788330078,0.9999995,1.4934683e-20,5.177835e-07,1.2739999e-13,3.0983866e-08
0,1,0.6701946258544922,0.46416932,0.5355437,3.3399585e-11,0.00028695425,1.1548056e-17
0,0,0.6697177886962891,1.0,1.5754924e-21,8.937961e-23,1.8536938e-22,3.623948e-36
0,1,0.6892681121826172,0.15774015,0.8422598,1.9900828e-10,8.8042656e-11,4.549365e-20
0,0,0.6718635559082031,0.9999995,5.2894393e-07,2.0074985e-19,7.834696e-24,1.18e-42
0,3,0.6687641143798828,0.0043027187,0.28627238,2.0466972e-08,0.7094248,3.1827287e-26
0,0,0.6697177886962891,1.0,1.2050473e-13,9.130207e-18,4.88603e-15,3.1673921e-37
0,1,0.6697177886962891,4.6004745e-11,1.0,1.0892421e-18,1.0595666e-18,4.9361232e-23
0,0,0.6692409515380859,0.9999982,1.7461363e-06,2.2189193e-11,7.3737056e-09,1.3842412e-29
0,0,0.6697177886962891,1.0,5.6093197e-24,5.4794555e-08,3.4929938e-15,9.6121183e-35
0,0,0.6694793701171875,1.0,3.040425e-12,4.5642826e-22,4.1577047e-11,9.694647e-34
0,0,0.6861686706542969,1.0,1.3403718e-09,7.532914e-14,1.8161182e-10,4.370492e-39
0,0,0.6783008575439453,0.99999905,4.294806e-07,3.3382207e-07,1.896207e-07,2.7947193e-23
0,1,0.67138671875,4.8552274e-06,0.9999951,3.8485992e-10,1.3884109e-12,5.3388995e-18
0,0,0.6732940673828125,0.99999857,9.510404e-08,1.2713133e-14,1.3286948e-06,1.5334554e-29
0,0,0.6694793701171875,0.99998283,1.3067375e-05,8.181059e-12,4.053199e-06,1.246304e-39
0,0,0.6709098815917969,0.9999747,2.3755172e-05,1.53388e-06,6.858127e-10,4.8614233e-14
0,0,0.6697177886962891,0.9999993,2.2934366e-10,2.2297578e-18,6.769205e-07,1.498299e-15
0,0,0.6701946258544922,1.0,5.9611426e-17,3.1399716e-17,7.255101e-15,2.0592464e-29
0,0,0.6737709045410156,0.99999976,2.7593305e-07,2.1595694e-15,8.8254685e-17,2.4813805e-19
0,0,0.67138671875,0.99999714,3.3279948e-09,2.611184e-11,2.825048e-06,8.450745e-24
0,0,0.6699562072753906,0.9999627,4.1007742e-11,1.9920413e-12,3.7313202e-05,2.3239814e-22
0,0,0.6697177886962891,0.9999999,1.0457828e-07,6.8796187e-09,8.775726e-11,8.961153e-20
0,0,0.6692409515380859,0.9999647,3.5243276e-05,4.2589092e-09,2.951111e-10,2.3451543e-30
0,0,0.6697177886962891,0.99999917,8.783742e-07,1.4226518e-16,1.6541706e-21,2.46e-42
0,0,0.6704330444335938,0.5242564,5.031715e-16,0.47566134,8.223081e-05,1.6358279e-09
0,0,0.6718635559082031,0.9841576,0.015051142,2.9410444e-08,0.0007912428,1.5330152e-32
0,0,0.7135868072509766,1.0,4.6490184e-10,1.2599866e-17,5.2138947e-19,2.284245e-28
0,0,0.67138671875,1.0,1.3519033e-08,3.9167133e-24,2.7517154e-26,1.8851948e-34
0,0,0.6699562072753906,0.9999995,1.0116794e-07,1.8534395e-13,3.3350784e-07,3.4344166e-32
0,0,0.6687641143798828,1.0,2.9357154e-13,1.2991347e-10,3.899821e-09,8.8507645e-30
1,1,0.6690025329589844,3.976517e-07,0.7713968,8.307851e-18,0.22860278,1.7541789e-28
0,0,0.6694793701171875,0.9999994,5.6249314e-07,2.3358489e-14,1.0327089e-20,1.484037e-39
0,0,0.6704330444335938,0.9942502,0.0057494673,3.924983e-20,3.4669108e-07,3.7119946e-25
0,0,0.6699562072753906,0.99999976,7.725141e-21,2.0319887e-07,6.338175e-17,2.3846154e-29
0,0,0.6771087646484375,0.99997425,2.5728896e-05,1.6908341e-11,2.895047e-10,7.034592e-25
0,0,0.6709098815917969,1.0,2.8363057e-17,6.627875e-24,1.2019132e-37,1.9561008e-35
0,0,0.6697177886962891,1.0,1.2997493e-14,1.3345444e-37,2.2167563e-12,0.0
0,0,0.6694793701171875,0.9999999,9.045939e-08,5.6190646e-16,1.5213312e-12,1.4659022e-19
0,0,0.6692409515380859,1.0,1.5045598e-12,1.9623681e-16,4.3588564e-08,3.2070234e-32
0,1,0.6699562072753906,3.2272343e-05,0.9999677,7.8410385e-13,1.0993036e-08,3.270028e-09
0,0,0.7033348083496094,0.9999999,1.4188059e-07,3.7074437e-19,1.97563e-26,9.984665e-33
0,0,0.6709098815917969,0.9557496,0.044219,2.347426e-15,3.1483058e-05,6.258472e-39
0,0,0.6794929504394531,1.0,5.2098446e-13,4.239344e-15,3.4679059e-12,2.1129386e-33
0,0,0.6694793701171875,0.9999635,7.6165173e-07,1.14493276e-10,3.5760222e-05,1.479479e-17
0,0,0.6697177886962891,1.0,2.814418e-08,2.9204813e-12,2.4605692e-11,1.7609253e-27
0,4,0.6680488586425781,6.279495e-07,1.3534251e-17,1.8352526e-11,1.0483306e-05,0.9999889
0,0,0.6692409515380859,0.999964,3.558799e-05,3.708836e-09,4.0297064e-07,1.2947645e-24
0,0,0.6692409515380859,0.99961686,0.00038309288,7.5993905e-09,4.0855648e-14,1.8007275e-29
0,0,0.6704330444335938,1.0,1.825089e-20,4.228128e-26,2.4542438e-32,1.5721434e-27
0,0,0.6704330444335938,0.9999995,1.3483436e-12,1.892315e-09,4.5044368e-07,5.4956936e-28
0,0,0.6704330444335938,0.9999709,3.5246762e-14,2.0435644e-17,2.9087963e-05,4.6817126e-16
0,0,0.6699562072753906,0.9999999,2.296996e-11,9.0511506e-08,7.631029e-15,1.4414955e-29
0,0,0.6704330444335938,0.999984,6.5192365e-11,2.9604076e-14,1.6031663e-05,2.7862506e-20
0,0,0.6690025329589844,1.0,2.6403557e-10,2.2760724e-10,3.154309e-15,1.8932603e-18
2,2,0.7002353668212891,2.8973487e-17,0.0,1.0,6.88199e-18,2.7007109e-30
0,0,0.6704330444335938,1.0,1.3610506e-10,1.0577371e-18,1.10624435e-16,8.909357e-25
2,2,0.6701946258544922,6.975342e-18,9.447593e-19,1.0,4.0108445e-19,1.6160872e-36
0,0,0.6697177886962891,1.0,3.6965025e-10,8.6510334e-11,4.8950675e-08,3.6024126e-17
0,0,0.6697177886962891,0.99999213,7.830287e-06,3.743186e-18,5.7686477e-22,3.4007898e-35
0,0,0.6697177886962891,0.9999926,2.5744038e-15,7.396551e-06,7.150518e-18,1.2245082e-12
0,0,0.6690025329589844,0.99999976,4.1049784e-08,1.7117702e-09,1.3865353e-07,3.5631209e-16
0,0,0.6701946258544922,0.9999999,3.2847046e-13,7.868068e-08,8.8593733e-16,2.724718e-30
2,2,0.6687641143798828,8.40385e-28,0.0,1.0,0.0,1.7946201e-37
0,0,0.6690025329589844,0.9999999,3.872789e-12,1.266688e-07,2.426058e-13,7.407764e-12
0,1,0.6680488586425781,0.41451994,0.5854528,7.53006e-13,2.732099e-05,8.641614e-38
0,0,0.6682872772216797,0.5928658,0.40713397,4.5098928e-11,1.669224e-07,3.554268e-36
0,0,0.6699562072753906,1.0,2.8775873e-10,1.0973796e-17,5.663944e-13,3.525109e-21
0,0,0.6687641143798828,1.0,4.2672595e-11,1.4180764e-21,3.8482999e-19,9.093052e-25
0,0,0.6978511810302734,1.0,1.0171889e-10,3.2239467e-12,2.8407482e-15,1.4351701e-28
0,0,0.6694793701171875,0.99999964,4.8138115e-11,3.6421696e-07,4.4018123e-13,5.888683e-12
0,0,0.6697177886962891,1.0,1.6446447e-15,1.9346642e-10,4.788569e-21,0.0
0,0,0.6685256958007812,1.0,2.1865836e-09,5.7362336e-16,4.657407e-17,2.628577e-29
0,0,0.6690025329589844,0.49536657,3.829028e-20,0.49109226,0.013541216,1.6271725e-14
0,0,0.6694793701171875,0.9999995,4.2912214e-07,1.7732239e-15,1.6401296e-19,1.7234662e-38
0,0,0.6694793701171875,0.9999291,8.160715e-09,5.5142084e-12,7.086718e-05,4.5426056e-32
0,0,0.6699562072753906,1.0,6.6112595e-09,2.5724202e-15,3.3083762e-14,3.6567524e-34
0,0,0.6716251373291016,0.9999995,1.3414325e-09,2.7818794e-10,4.7803053e-07,1.9325805e-20
0,0,0.6694793701171875,1.0,4.0396763e-14,0.0,1.3303189e-13,6.6747e-41
3,0,0.6687641143798828,1.0,0.0,7.49495e-14,3.3884703e-12,3.5742993e-38
0,1,0.6694793701171875,1.0482127e-06,0.9999989,1.2451944e-13,4.6837877e-25,3.188e-42
0,0,0.6687641143798828,0.99685574,0.0029591923,0.00018506437,3.2938502e-10,2.8619528e-22
2,2,0.6945133209228516,1.512764e-19,8.256915e-20,1.0,3.1914246e-26,1.157e-42
0,0,0.6711483001708984,0.99998903,1.0936454e-05,8.887406e-16,2.330071e-10,2.6280867e-29
0,0,0.6697177886962891,1.0,1.01630405e-11,2.8161372e-15,1.9496707e-10,2.0773232e-28
0,0,0.6701946258544922,0.99996185,2.8408438e-05,9.618671e-06,7.18961e-08,7.111959e-13
0,0,0.6690025329589844,0.99645567,0.0018712957,3.882931e-13,0.0016730954,1.6974167e-29
0,0,0.6704330444335938,1.0,1.3222752e-08,2.8642258e-18,1.0369242e-15,4.0679297e-21
0,0,0.6692409515380859,0.99998724,9.9504405e-09,1.0839494e-22,1.2775091e-05,5.6792843e-25
0,0,0.6697177886962891,0.9996476,0.00035233865,4.3738403e-12,6.243507e-14,8.285522e-27
1,0,0.6682872772216797,1.0,5.8636606e-34,0.0,0.0,0.0
0,0,0.6699562072753906,0.99999785,3.4028477e-12,2.1018711e-06,1.7124788e-09,3.4162708e-34
0,0,0.6687641143798828,1.0,8.226992e-18,2.1746497e-29,2.4575938e-20,7.76869e-39
0,0,0.6680488586425781,1.0,1.8789332e-09,1.2535771e-24,1.5064954e-08,1.1386277e-26
0,0,0.6709098815917969,1.0,1.2221641e-14,8.696623e-20,4.642149e-11,2.86e-43
0,0,0.6685256958007812,0.800838,0.19915736,1.0172921e-07,4.6318696e-06,5.698161e-34
0,0,0.7009506225585938,0.99992657,7.589281e-14,7.234997e-05,1.072024e-06,6.375976e-13
0,0,0.67138671875,0.9999893,5.3238733e-09,1.074158e-05,7.6534e-10,1.3239732e-10
0,0,0.6687641143798828,0.99999726,2.7019316e-06,5.204717e-20,3.854118e-21,1.3640888e-38
0,0,0.6697177886962891,0.99978536,0.0,3.5534765e-07,6.741291e-08,0.00021413434
0,0,0.6697177886962891,1.0,4.018679e-11,4.578832e-12,1.1516723e-10,1.062245e-34
0,0,0.6699562072753906,1.0,1.6414356e-15,1.9729065e-16,1.2191079e-09,7.8071304e-32
0,0,0.6690025329589844,0.99999964,1.9540908e-31,2.826694e-23,3.548115e-07,1.563034e-10
2,2,0.6694793701171875,6.4049023e-22,3.2788016e-21,1.0,1.9451617e-21,5.7453506e-21
3,3,0.6682872772216797,2.4332494e-10,4.303215e-22,4.2579763e-14,1.0,2.8062566e-25
0,0,0.6718635559082031,0.99886924,1.6814723e-12,1.4427864e-20,0.0011307315,7.243831e-22
0,0,0.6697177886962891,1.0,6.0477513e-15,1.19992e-15,1.3501329e-12,2.434683e-37
0,0,0.6697177886962891,0.99999905,9.613511e-07,9.3790935e-14,2.7522605e-17,4.3828016e-20
0,0,0.6711483001708984,0.9999999,7.566257e-08,2.768677e-19,5.686639e-26,2.2762202e-32
0,0,0.6701946258544922,1.0,1.1871747e-10,7.2285666e-34,7.211587e-15,3.2292784e-33
0,0,0.6971359252929688,1.0,1.4456471e-15,9.663235e-10,2.783401e-16,3.9844933e-26
0,0,0.6706714630126953,1.0,2.3363206e-08,1.5847119e-13,3.6242396e-13,1.7140845e-23
0,0,0.6694793701171875,0.99998856,1.14334725e-05,7.506087e-12,1.6005274e-15,1.5620609e-24
0,0,0.6706714630126953,1.0,2.1464365e-08,7.8905497e-16,8.683762e-12,8.323723e-16
0,0,0.6704330444335938,1.0,2.5984336e-18,8.502248e-24,2.2410014e-23,2.0648508e-18
0,0,0.6692409515380859,1.0,8.4036106e-24,3.1130556e-23,9.9496546e-17,1.802011e-34
0,0,0.6694793701171875,0.9999999,8.570441e-15,1.2363759e-16,1.6670636e-07,1.08137784e-29
0,0,0.6699562072753906,1.0,5.364686e-12,3.5989637e-14,1.0785536e-11,4.3874863e-29
0,0,0.6687641143798828,1.0,2.1522623e-19,1.4501248e-25,5.8510463e-23,2.1026926e-20
0,0,0.6690025329589844,0.9999095,9.0454116e-05,1.746878e-11,1.7719725e-11,5.052798e-16
1,0,0.6692409515380859,0.9999943,6.5546163e-10,5.631932e-06,7.804397e-08,1.1310549e-17
0,3,0.6697177886962891,0.0007540702,2.2968513e-07,1.2831973e-08,0.99729687,0.0019488293
2,2,0.6690025329589844,1.6019966e-07,2.3542753e-20,0.9999999,1.5698825e-29,7.263976e-26
0,3,0.6833076477050781,2.7759867e-07,5.8054783e-11,2.9256887e-07,0.9999994,6.521477e-33
0,0,0.7038116455078125,0.99999416,2.141983e-15,6.4550627e-18,5.8294186e-06,1.2096419e-23
2,2,0.67138671875,1.4416147e-13,5.6539595e-17,1.0,2.3454396e-18,7.915489e-14
0,0,0.6694793701171875,0.99989223,0.00010772456,1.503765e-14,5.0578487e-13,4.0915127e-24
0,0,0.6690025329589844,0.99999547,4.5246866e-06,7.68699e-11,2.6669703e-11,8.347821e-12
0,0,0.6685256958007812,1.0,1.9518865e-08,3.9954788e-13,1.479522e-13,6.457518e-24
0,0,0.6692409515380859,1.0,5.046232e-21,3.8062612e-22,1.5457538e-13,2.8197603e-37
0,0,0.6690025329589844,0.9999485,5.148167e-05,2.1724225e-11,1.4643108e-10,5.4261007e-31
0,0,0.6773471832275391,1.0,1.2762326e-10,2.140706e-14,9.566004e-14,6.315442e-24
0,0,0.6706714630126953,1.0,6.761277e-25,3.883085e-35,1.0722723e-12,0.0
0,0,0.6701946258544922,0.999933,1.0174277e-13,1.0596547e-15,6.7014626e-05,5.260563e-15
0,0,0.6697177886962891,0.9997713,0.00022871682,1.5661846e-16,2.7466882e-10,3.3327815e-24
0,0,0.6687641143798828,1.0,5.05368e-16,1.1618089e-16,5.427413e-17,1.3823756e-29
0,0,0.6699562072753906,1.0,7.989392e-09,3.3082465e-16,1.5834307e-17,3.3987923e-28
0,0,0.6694793701171875,1.0,4.8907345e-09,7.3125137e-09,3.478247e-08,2.2439643e-20
0,0,0.701904296875,0.99999964,3.9262144e-07,1.2123313e-10,1.9501943e-10,7.430911e-24
0,0,0.6771087646484375,1.0,4.020878e-27,2.4185087e-17,1.2873165e-11,8.116008e-10
0,0,0.6701946258544922,0.9982317,4.5928095e-20,3.8321724e-11,1.3637955e-09,0.0017683054
2,2,0.6692409515380859,2.895678e-11,1.3653109e-23,1.0,1.1944796e-13,2.7142733e-29
0,3,0.6706714630126953,0.2251949,1.7687605e-18,9.905236e-21,0.7748051,6.385661e-39
0,0,0.6692409515380859,0.99999726,2.777309e-06,1.8704867e-08,9.416994e-09,4.15322e-20
0,0,0.6690025329589844,1.0,1.407049e-17,8.881329e-25,5.315785e-12,4.4146266e-32
0,2,0.6687641143798828,0.31087258,4.2740932e-17,0.68907243,5.496117e-05,1.794175e-09
0,0,0.6690025329589844,0.99999976,1.6018237e-07,1.2452602e-12,6.731095e-08,7.0439443e-28
0,3,0.6742477416992188,0.12812273,5.1510004e-05,6.95801e-06,0.8718188,4.144282e-29
0,0,0.6685256958007812,1.0,1.8869898e-08,1.2540777e-19,1.5455072e-08,1.4619552e-25
0,0,0.6699562072753906,0.999997,2.9266794e-06,2.9038646e-12,6.5120003e-15,8.2223315e-16
0,0,0.6692409515380859,0.9999924,7.645619e-06,2.0101187e-09,4.6826605e-09,1.6778519e-13
0,0,0.6937980651855469,1.0,7.8366263e-13,1.8507026e-17,1.821914e-08,7.4007515e-33
0,0,0.6690025329589844,1.0,1.8359408e-08,9.915102e-09,5.4528274e-12,3.782418e-24
0,0,0.7123947143554688,1.0,6.024467e-32,6.0971224e-20,9.12637e-27,6.776074e-39
0,0,0.8082389831542969,1.0,6.387495e-10,3.5085885e-17,9.283443e-13,1.1302857e-16
0,1,0.7412433624267578,0.09784151,0.9021585,4.154192e-18,3.3973269e-16,2.0679067e-38
0,0,0.6775856018066406,1.0,5.1089362e-11,2.3142566e-15,8.233339e-09,1.8867939e-32
0,0,0.6699562072753906,0.9999609,3.9078037e-05,4.8920107e-08,8.130088e-09,2.6542518e-34
0,0,0.6685256958007812,0.9999999,1.5446103e-09,9.081621e-08,1.0776327e-10,2.4662577e-12
0,3,0.6701946258544922,0.06076836,3.1056225e-05,8.478741e-07,0.93919975,3.7158468e-19
0,0,0.6697177886962891,0.9999708,9.726468e-14,6.4920304e-17,2.9241406e-05,1.1797989e-18
0,0,0.6706714630126953,0.9999709,9.410815e-14,2.1185408e-05,7.896728e-06,3.617449e-13
0,0,0.6706714630126953,0.99471056,0.005241326,8.258342e-08,4.794927e-05,4.603125e-24
0,0,0.6716251373291016,1.0,8.103746e-09,3.376215e-22,5.884736e-30,6.327811e-32
0,0,0.6701946258544922,0.999833,2.1001506e-15,8.8400005e-17,0.00016702249,1.4982544e-24
0,0,0.6737709045410156,1.0,2.4998547e-16,3.1601786e-20,2.2089284e-22,1.3255676e-31
0,0,0.6709098815917969,0.9999999,4.7228916e-08,4.8244996e-16,8.762793e-08,1.2819361e-29
0,0,0.6704330444335938,1.0,2.1380315e-27,8.052642e-27,5.6976748e-09,1.2815424e-18
0,0,0.6704330444335938,1.0,2.7016399e-14,4.1075842e-21,4.87535e-12,2.0317513e-27
0,0,0.6685256958007812,0.99999976,2.9479697e-28,3.7549347e-14,2.9378606e-07,1.3367268e-26
0,0,0.6701946258544922,1.0,6.1249845e-11,1.3314809e-10,5.5683694e-11,7.5331e-41
0,2,0.6721019744873047,0.0030499387,6.8301288e-18,0.99694926,7.8190857e-07,1.35247395e-11
0,0,0.667572021484375,1.0,8.518875e-23,6.243147e-14,5.5316488e-18,7.5392544e-36
0,0,0.6711483001708984,1.0,2.7214194e-12,5.3241834e-17,1.2457831e-16,6.715974e-35
2,2,0.6721019744873047,7.929795e-19,1.1355811e-14,1.0,4.8056514e-25,1.6460187e-23
2,2,0.7867813110351562,9.5249413e-23,0.0,1.0,0.0,3.5705e-41
2,2,0.7424354553222656,3.9040896e-26,5.5495385e-30,1.0,3.780854e-35,8.298049e-37
0,0,0.6773471832275391,0.9999999,1.5482222e-07,5.971654e-18,2.6679409e-17,8.150286e-37
0,0,0.7228851318359375,1.0,2.4704245e-12,2.9743966e-17,1.3652268e-09,2.6863846e-32
0,0,0.6868839263916016,0.999998,1.09397014e-07,5.439284e-11,1.9656816e-06,3.922177e-24
0,1,0.6694793701171875,0.12501486,0.8749849,4.3512376e-09,2.413756e-07,1.1745346e-18
0,0,0.6692409515380859,0.9246012,5.411716e-06,6.642477e-16,0.07539343,2.4515537e-19
0,1,0.6704330444335938,8.67666e-08,0.9999999,3.7084576e-14,2.9997295e-15,1.866325e-20
0,0,0.6694793701171875,1.0,5.2275406e-10,1.2425064e-19,8.0644975e-22,2.5664247e-35
0,0,0.6692409515380859,0.99999917,2.9626797e-13,3.9520434e-22,8.6218705e-07,5.3550145e-33
2,2,0.6701946258544922,1.0290806e-26,1.12959726e-29,1.0,1.0059231e-37,4.642755e-39
2,2,0.6685256958007812,6.4869754e-16,5.3313965e-14,1.0,1.3678994e-19,6.031714e-38
0,0,0.6725788116455078,1.0,1.1152772e-10,8.66271e-14,4.399439e-09,3.2818763e-23
0,0,0.6690025329589844,1.0,6.4489543e-31,3.90199e-11,9.5721135e-15,1.031031e-08
0,0,0.6697177886962891,0.9931718,0.006795118,8.410657e-14,3.3075034e-05,5.833683e-30
0,0,0.6694793701171875,1.0,3.7958604e-13,7.4849993e-16,9.323657e-16,2.8448254e-30
0,0,0.7009506225585938,1.0,8.578187e-09,7.017713e-14,9.637573e-18,1.1477881e-22
0,0,0.6701946258544922,0.9999999,1.0864531e-11,2.882457e-08,8.80273e-08,3.6075515e-19
0,0,0.6699562072753906,1.0,3.0451548e-12,3.0370037e-13,2.3782993e-09,7.339702e-36
0,0,0.6701946258544922,0.96380967,0.035983127,9.005664e-14,0.00020723917,4.3617602e-26
0,0,0.6694793701171875,0.9999794,1.6825909e-11,3.5780978e-13,2.0651843e-05,8.720997e-34
0,0,0.7431507110595703,1.0,4.8567312e-20,7.6894985e-16,1.9976978e-08,3.87755e-19
0,0,0.8003711700439453,1.0,5.5201154e-19,9.288492e-28,2.3344635e-38,1.13585415e-36
0,0,0.7100105285644531,1.0,6.027024e-11,5.4596475e-22,1.562695e-10,3.565998e-27
0,0,0.6725788116455078,1.0,8.7729436e-16,1.7395536e-35,4.2313624e-15,2.10517e-40
2,2,0.6692409515380859,5.973987e-11,0.02630323,0.97369677,8.388604e-24,2.1462829e-17
0,0,0.6697177886962891,1.0,6.394626e-14,2.1159124e-13,1.4809236e-15,1.2089875e-26
0,0,0.6694793701171875,0.9999969,3.1065538e-06,1.1875614e-16,2.620269e-22,3.178e-42
0,0,0.6704330444335938,1.0,3.8504905e-10,8.536659e-14,8.1273076e-16,2.930399e-29
0,0,0.6687641143798828,0.9999993,6.7896605e-07,1.8687501e-08,2.9710456e-08,4.3492883e-22
0,1,0.6735324859619141,0.002998917,0.9970009,1.963619e-09,1.8378977e-07,3.7243787e-26
0,0,0.6697177886962891,1.0,9.878494e-14,2.4581801e-16,2.256743e-08,2.1701015e-35
0,0,0.6690025329589844,1.0,7.0041564e-13,4.453491e-27,1.6308099e-11,2.8859647e-32
0,0,0.6697177886962891,0.99999976,2.619587e-07,3.6485457e-11,3.5456707e-16,8.569873e-25
2,2,0.6701946258544922,0.0,0.0,1.0,0.0,0.0
0,0,0.6704330444335938,1.0,1.3056543e-08,1.3980317e-20,7.0290855e-18,1.433056e-39
0,0,0.6706714630126953,1.0,2.2531195e-10,2.2343771e-08,3.3439012e-15,7.1331757e-29
0,0,0.6692409515380859,1.0,1.6337278e-14,7.480439e-14,1.6577483e-20,1.2777379e-36
0,0,0.6704330444335938,0.9999999,1.2829331e-08,3.7870822e-16,4.9652154e-08,1.570234e-16
0,0,0.6690025329589844,1.0,2.0111269e-17,1.8450228e-15,2.3712593e-10,1.2301471e-31
0,0,0.6701946258544922,0.9999758,4.949015e-15,2.3538727e-05,6.6784673e-07,6.7471445e-11
0,0,0.6682872772216797,1.0,9.933615e-09,2.2839175e-10,3.1846483e-20,1.5488705e-24
0,0,0.6806850433349609,0.9999988,2.6273042e-19,5.414706e-18,1.1574539e-06,2.2983578e-36
0,0,0.8516311645507812,1.0,5.0894973e-21,0.0,1.5715767e-16,1e-45
0,0,0.7350444793701172,1.0,2.7705718e-09,2.8563442e-13,7.4516066e-13,2.3743126e-30
0,3,0.6799697875976562,0.040437482,7.2548165e-18,0.03142296,0.92813957,7.055668e-11
0,0,0.67138671875,0.9999658,3.3835226e-05,1.0862234e-07,2.7087236e-07,1.2080139e-20
0,0,0.6685256958007812,0.9999999,3.920756e-09,6.704304e-08,3.2674946e-10,5.225321e-27
0,0,0.6692409515380859,1.0,1.3827218e-13,1.7430385e-15,7.2981896e-09,1.5891356e-11
0,0,0.6694793701171875,0.9999999,1.1059539e-07,1.396753e-19,8.3375485e-23,2.9361412e-35
0,0,0.6704330444335938,1.0,1.5709595e-12,4.083938e-13,2.5245004e-14,4.657e-42
0,0,0.6694793701171875,0.9999999,5.491052e-10,1.274509e-08,6.189408e-08,5.6396023e-13
0,0,0.6697177886962891,0.9999877,4.9164856e-10,1.2326238e-05,1.5619128e-10,5.849968e-16
0,0,0.6687641143798828,1.0,1.02615206e-19,7.390763e-11,7.1281966e-22,4.57e-43
0,0,0.6692409515380859,1.0,1.8189444e-09,2.5909522e-17,5.313824e-10,7.751946e-21
0,0,0.6685256958007812,1.0,1.5724074e-08,9.199137e-13,9.4162366e-15,7.917033e-28
0,0,0.67138671875,0.99940884,3.690576e-05,4.717483e-11,0.0005543205,9.539538e-27
0,0,0.6699562072753906,0.9999664,3.3667195e-05,1.5684756e-12,9.9814905e-15,3.3016047e-16
0,0,0.6694793701171875,0.91523653,0.084763356,3.5501932e-13,6.72262e-08,1.2189184e-16
1,0,0.6699562072753906,0.9996107,8.2973355e-07,0.00038844146,1.1702803e-08,7.862651e-19
0,0,0.6697177886962891,1.0,1.0790444e-09,4.5511432e-20,1.3882762e-25,8.692491e-39
0,0,0.6692409515380859,1.0,1.4324001e-09,1.7285102e-16,2.86863e-12,8.860764e-30
3,2,0.6699562072753906,1.3339669e-33,0.0,1.0,4.2219363e-35,0.0
0,0,0.6690025329589844,1.0,6.65016e-17,1.104811e-15,4.66228e-16,4.754434e-31
2,2,0.7596015930175781,1.17092855e-11,2.4965278e-32,1.0,1.6819901e-15,4.22e-43
2,2,0.7777214050292969,1.4717288e-06,1.8292851e-17,0.99999857,1.9816415e-20,8.546951e-12
0,0,0.6868839263916016,1.0,1.8819161e-14,7.655045e-25,3.2677604e-23,0.0
0,0,0.6692409515380859,0.5442647,2.929526e-20,0.21761422,0.23812108,6.884857e-14
0,0,0.6892681121826172,0.9990283,7.207399e-07,3.7432078e-06,0.0009673278,8.099933e-09
0,0,0.6699562072753906,1.0,1.5952731e-15,5.167938e-14,4.2987882e-13,7.508e-41
0,4,0.7185935974121094,1.5816251e-05,7.90872e-15,3.592878e-14,1.7022674e-26,0.99998415
0,0,0.6680488586425781,0.9999832,1.6867554e-05,9.321585e-15,1.962034e-14,2.9986697e-17
0,0,0.6704330444335938,1.0,5.2294027e-11,1.4627936e-23,3.2116648e-24,5.5007073e-36
0,0,0.6690025329589844,0.99997926,2.07613e-05,1.0944563e-08,1.584785e-09,2.5056532e-25
0,0,0.6690025329589844,0.9999999,9.531427e-08,2.174312e-19,1.8192186e-24,4.074371e-30
0,0,0.6680488586425781,1.0,2.7423335e-13,2.1930855e-14,7.351152e-09,4.4727203e-31
0,0,0.6682872772216797,1.0,5.7442932e-08,1.3332027e-08,7.641973e-10,5.272963e-14
0,0,0.6699562072753906,0.99891794,5.5470982e-11,0.0010821411,2.463847e-09,5.522333e-18
0,0,0.6685256958007812,0.972758,5.6693155e-14,4.545393e-05,0.027196504,3.3984563e-17
0,0,0.6687641143798828,0.9999957,4.305111e-06,2.6926627e-13,1.9916202e-09,1.6067e-41
2,2,0.6692409515380859,3.166059e-25,9.86942e-36,1.0,0.0,0.0
0,0,0.6697177886962891,0.99999976,2.353233e-09,2.0532705e-07,9.74776e-13,1.5537677e-12
0,0,0.6690025329589844,0.99993193,1.2731584e-09,8.902149e-20,6.805163e-05,1.3443765e-21
0,0,0.7162094116210938,0.9999981,7.8383675e-15,1.888223e-06,4.1756854e-13,8.535668e-32
0,0,0.6711483001708984,1.0,2.8967415e-09,1.9013037e-23,2.567785e-21,4.6933573e-34
0,0,0.7426738739013672,1.0,1.5272116e-10,3.0999767e-09,1.3868126e-10,1.2723564e-24
0,0,0.8101463317871094,1.0,9.818629e-25,5.433523e-25,1.0273749e-25,9.691578e-19
0,0,0.70953369140625,0.7286018,2.767439e-05,4.855684e-08,0.27137053,2.3230155e-27
0,0,0.6814002990722656,1.0,6.376129e-13,5.320786e-12,1.0906367e-15,1.8504859e-37
0,0,0.6723403930664062,0.9999994,5.6562175e-07,8.640926e-21,5.874366e-24,1.1750017e-30
0,0,0.6711483001708984,0.9999999,9.5461644e-08,1.785701e-15,2.7711664e-22,1.7790224e-32
2,0,0.6692409515380859,0.50618374,6.3804126e-30,1.017526e-06,0.49381524,1.7665207e-28
0,0,0.6687641143798828,0.9999989,1.0192952e-06,1.2561623e-10,1.7713808e-11,3.722806e-17
0,0,0.6694793701171875,0.9999999,1.9181032e-11,4.4428044e-14,6.90979e-08,1.6264218e-28
0,0,0.6692409515380859,0.9999999,1.1720077e-07,9.339712e-12,9.473681e-12,8.045144e-28
0,0,0.6706714630126953,0.9985991,7.336063e-14,9.359563e-23,0.001400865,4.642622e-39
0,0,0.7202625274658203,1.0,8.890997e-12,2.6987762e-14,1.2827963e-08,3.0156924e-28
0,0,0.6699562072753906,1.0,2.6047624e-09,4.6872413e-18,5.673689e-12,2.7627715e-17
2,2,0.6685256958007812,4.2992816e-20,1.3205396e-18,1.0,4.1886197e-34,1.77028e-35
0,0,0.6678104400634766,1.0,7.6123e-09,6.598197e-20,4.233763e-25,1.6904962e-27
0,0,0.6694793701171875,1.0,1.9179104e-10,5.6055917e-11,1.280718e-16,3.4356018e-22
0,1,0.6682872772216797,0.007354998,0.992645,1.13255426e-10,2.2351332e-09,3.010737e-35
2,0,0.6854534149169922,0.9940433,2.4782242e-08,0.0033347935,0.0026218966,5.6572403e-15
0,0,0.6690025329589844,1.0,5.300758e-09,1.327254e-14,2.1796379e-13,1.8144699e-25
0,0,0.6690025329589844,1.0,1.1297618e-20,3.5141908e-15,6.666565e-18,7.129501e-22
0,0,0.6692409515380859,0.9111216,0.05970502,0.028567841,0.00060459436,1.0083781e-06
1,1,0.6780624389648438,5.129748e-05,0.99994826,1.7361797e-15,4.8509753e-07,3.1263773e-38
2,2,0.7975101470947266,5.702166e-20,7.376673e-28,1.0,1.6733253e-22,4.557509e-39
0,0,0.7371902465820312,1.0,1.567422e-08,1.4371616e-13,6.402363e-14,3.307365e-30
0,0,0.6763935089111328,0.99996984,3.0200286e-05,4.564908e-12,2.1994004e-09,5.1547088e-14
0,1,0.7224082946777344,0.2821543,0.71784574,8.5853885e-10,8.4307054e-11,1.253403e-20
0,0,0.6701946258544922,1.0,8.585442e-12,1.3482794e-13,5.6625024e-11,2.735735e-39
0,0,0.6701946258544922,0.9999962,8.373382e-10,1.1771392e-13,3.8440407e-06,3.6349155e-35
0,0,0.6680488586425781,0.99675983,1.6136277e-06,5.4583165e-08,0.00323854,1.5496361e-14
0,0,0.6690025329589844,1.0,1.3326636e-12,3.3831686e-08,3.6011079e-13,8.8086905e-16
0,0,0.6687641143798828,0.9672346,8.8238536e-05,3.1917055e-17,0.03267712,2.1544916e-15
0,0,0.6694793701171875,1.0,1.3893886e-10,4.843622e-24,6.9380734e-36,2.3717706e-36
2,2,0.6699562072753906,6.315656e-10,6.826443e-10,1.0,2.6776839e-09,3.0369625e-17
0,1,0.6682872772216797,0.26952505,0.69001305,0.04046187,9.564571e-11,7.47021e-18
0,0,0.6833076477050781,1.0,6.18101e-19,3.6193093e-12,1.1205729e-19,2.4887633e-36
0,0,0.6701946258544922,0.9999999,1.650471e-07,6.3150293e-25,1.5702965e-28,1.6267093e-33
0,0,0.6680488586425781,0.9997564,3.4447248e-22,2.2226754e-09,8.8981896e-17,0.00024354635
0,0,0.6685256958007812,0.8008788,0.19911775,2.658443e-17,3.4712295e-06,1.1833667e-27
0,1,0.6990432739257812,0.013030789,0.98696923,3.0016056e-13,1.1149304e-11,1.38339e-39
0,0,0.6699562072753906,1.0,3.6427353e-10,7.485596e-09,7.914671e-15,1.9292929e-16
0,0,0.6697177886962891,0.9999652,2.769441e-08,2.7518794e-05,7.2308985e-06,6.9097666e-10
0,0,0.6704330444335938,1.0,1.6476233e-20,1.4358975e-22,2.0336955e-37,1.4260861e-32
0,1,0.6682872772216797,1.7587203e-05,0.99998236,1.1996145e-16,2.8769944e-13,6.719725e-20
0,0,0.7569789886474609,1.0,1.905751e-12,3.3989804e-17,3.711966e-15,2.7353165e-25
0,0,0.7836818695068359,1.0,5.7654116e-12,3.2587713e-16,6.015741e-09,6.263873e-34
0,0,0.6878376007080078,0.9999652,1.1859079e-08,5.1150683e-14,3.4763503e-05,2.2304751e-31
0,0,0.6706714630126953,0.9388231,1.6160283e-09,6.668278e-14,0.061176874,3.3678475e-13
0,0,0.6697177886962891,1.0,9.5768373e-20,3.537246e-21,1.046832e-08,6.327398e-33
0,0,0.6680488586425781,1.0,6.681135e-12,2.0859372e-11,6.0629737e-15,1.2501335e-32
0,0,0.6699562072753906,1.0,8.737188e-13,6.625851e-17,2.4720506e-16,3.7558234e-29
0,3,0.6685256958007812,0.15841053,2.020221e-05,1.0628652e-05,0.84155816,5.4319787e-07
2,2,0.6694793701171875,5.116092e-12,0.0011509409,0.9988488,4.5263227e-17,1.9206261e-07
0,0,0.67138671875,1.0,4.6205115e-09,3.2946188e-13,1.131054e-15,3.8752698e-28
0,0,0.6697177886962891,1.0,1.6177093e-10,2.4162738e-12,4.5594455e-14,2.4953036e-21
0,0,0.6690025329589844,1.0,2.1910006e-24,1.3243268e-20,7.777481e-13,1.2512674e-12
0,0,0.6694793701171875,0.99823356,0.0017664741,3.7046835e-10,2.3255118e-09,3.431086e-17
0,0,0.6711483001708984,1.0,8.828182e-13,1.6320007e-16,4.660378e-12,2.666627e-33
0,0,0.6692409515380859,1.0,4.2309794e-13,1.3831788e-12,1.6313411e-12,2.8890561e-27
0,0,0.6694793701171875,0.9999999,4.995837e-10,3.4724712e-09,6.023631e-08,1.310789e-16
0,0,0.6687641143798828,0.9999882,1.1803225e-05,2.9054737e-08,2.2362554e-09,6.768684e-24
0,0,0.6687641143798828,0.99547064,0.0037516481,5.5968325e-14,0.0007777492,1.5971813e-19
0,0,0.6687641143798828,1.0,5.624814e-08,9.61266e-22,1.4356879e-24,1.5371708e-29
2,2,0.6687641143798828,1.2454198e-27,0.0,1.0,8.4273516e-20,7.980704e-37
0,0,0.6692409515380859,0.9997515,9.943215e-10,0.00024850314,5.323437e-14,2.9463348e-30
0,0,0.6878376007080078,0.9999999,1.7997133e-15,1.0570185e-19,1.3584848e-07,1.4311847e-20
0,0,0.8544921875,1.0,3.759474e-09,6.274171e-22,4.1658537e-24,4.2694074e-34
2,0,0.7250308990478516,0.9999999,1.0423496e-07,5.2817502e-14,3.0159164e-17,1.2444981e-27
0,0,0.6768703460693359,1.0,3.563661e-11,2.2398042e-16,2.3392477e-10,4.4750175e-34
0,0,0.6730556488037109,1.0,1.3795706e-10,3.8306e-15,2.0279942e-10,3.6659258e-13
0,0,0.6694793701171875,1.0,3.4674282e-13,1.2662467e-23,0.0,6.825923e-36
0,0,0.6690025329589844,1.0,4.236321e-11,1.759465e-12,2.1164089e-13,4.7124613e-35
0,0,0.6694793701171875,1.0,1.2225838e-14,8.122952e-20,3.9558445e-16,6.262557e-27
0,0,0.6711483001708984,0.9999999,1.3719144e-09,8.6394046e-08,3.2016683e-14,1.31754035e-33
0,0,0.6692409515380859,1.0,4.29852e-08,4.0686927e-20,1.4767345e-27,1.333545e-32
0,0,0.6692409515380859,0.63832724,0.3616727,1.265437e-09,1.0796825e-07,5.2030008e-17
0,0,0.6692409515380859,0.9999999,4.1774193e-18,1.13788964e-07,3.0340013e-15,5.4571437e-31
0,0,0.6692409515380859,1.0,1.2512753e-11,6.0126536e-36,3.4308945e-18,4.4013238e-33
0,0,0.6699562072753906,0.999998,3.3368533e-08,3.8146545e-11,2.043596e-06,5.483832e-28
0,0,0.7135868072509766,0.9998634,0.00013619073,3.2329228e-07,1.1091466e-11,3.4611028e-19
1,1,0.6711483001708984,7.0696546e-13,1.0,7.38576e-11,1.3139954e-28,1.3578646e-20
0,0,0.6694793701171875,0.99998724,1.8671696e-13,3.6805147e-17,1.2696278e-05,5.7475556e-14
2,0,0.667572021484375,0.99632037,0.0,0.003679684,1.1781675e-26,1.3465e-41
0,0,0.6680488586425781,0.99807584,3.973113e-18,0.0019240194,4.4007933e-16,8.5152706e-08
0,0,0.6685256958007812,1.0,4.997516e-21,1.2863252e-22,3.0362033e-29,6.522994e-27
0,0,0.6699562072753906,1.0,2.1583113e-21,1.0442654e-12,3.38148e-26,0.0
0,0,0.6692409515380859,0.99998033,2.9217366e-21,1.9719568e-05,3.1117074e-11,1.13487e-29
0,0,0.7610321044921875,0.9999945,5.461177e-06,1.08717944e-10,1.2386973e-11,5.881123e-19
0,0,0.7641315460205078,1.0,4.5800638e-12,6.1332345e-12,2.56978e-09,7.911212e-34
0,1,0.6830692291259766,0.028008424,0.9618389,3.1345994e-08,0.010152631,3.475323e-22
0,0,0.6716251373291016,1.0,5.4247874e-12,6.3457517e-16,1.69092e-22,5.8620535e-25
0,0,0.6699562072753906,1.0,1.5761232e-14,0.0,1.2415067e-19,0.0
0,0,0.6709098815917969,0.9999956,5.476625e-10,4.361998e-06,3.326712e-14,2.4108539e-12
0,0,0.7357597351074219,1.0,2.6278793e-11,1.0265463e-10,1.027709e-12,2.3232633e-28
0,0,0.6814002990722656,1.0,5.678361e-10,1.6769369e-13,6.074573e-11,1.0378509e-36
2,3,0.6723403930664062,5.2092946e-05,3.9124913e-24,4.0554764e-06,0.99994385,1.6876827e-34
2,2,0.6697177886962891,2.0978836e-22,0.0,1.0,2.0709877e-11,2.28301e-40
0,0,0.6697177886962891,1.0,3.5395298e-12,5.4062328e-17,4.5481438e-11,1.3973122e-27
3,3,0.6706714630126953,2.2042245e-07,3.0662494e-14,1.12520256e-20,0.99999976,5.1091866e-34
0,0,0.6697177886962891,0.9999964,3.534441e-06,5.5387916e-24,9.289778e-34,1.1967945e-28
0,0,0.6680488586425781,0.9999995,4.6644868e-07,2.365173e-22,2.0485766e-27,1.969063e-39
0,0,0.6692409515380859,1.0,5.8607962e-12,1.5167767e-12,5.1214605e-12,3.036222e-24
0,0,0.6690025329589844,1.0,6.6065785e-14,6.111442e-09,5.7804354e-14,8.8245616e-13
0,0,0.6694793701171875,1.0,2.7370314e-08,7.256683e-10,1.7611018e-10,2.0388534e-14
1,1,0.6690025329589844,0.0006997398,0.99930024,4.7850963e-11,1.1528239e-10,2.5293592e-21
0,0,0.6692409515380859,1.0,8.5280205e-21,3.2283126e-10,1.1021717e-15,1.2582985e-35
2,2,0.7150173187255859,1.7497671e-15,7.104697e-27,1.0,6.2251347e-21,5.966737e-25
0,0,0.67138671875,0.99999726,2.7204576e-06,3.5488065e-13,1.4629005e-09,1.0735312e-17
0,0,0.7452964782714844,0.9999995,8.31368e-11,4.3219833e-07,6.453288e-14,2.1440087e-12
0,0,0.7944107055664062,0.99999964,1.0059911e-08,2.805112e-09,3.371693e-07,3.1397817e-15
0,0,0.698089599609375,1.0,6.34979e-10,1.6251227e-17,2.9424043e-16,2.363964e-38
0,0,0.6737709045410156,1.0,1.273828e-09,3.245258e-26,9.5733086e-17,1.0888963e-27
0,0,0.6709098815917969,0.9999993,1.5440373e-25,6.787071e-07,1.5388193e-28,4.1229e-37
0,0,0.6692409515380859,0.99998724,3.730567e-06,4.5199391e-10,9.005139e-06,1.7247376e-19
0,0,0.6692409515380859,0.9998802,6.309616e-13,0.00011981284,5.0137117e-09,5.0139605e-24
0,0,0.6687641143798828,1.0,7.12445e-13,6.4334295e-22,1.0485563e-20,8.839083e-24
0,0,0.6682872772216797,0.99999905,9.1412966e-07,5.4992618e-11,1.6779311e-12,9.820132e-22
0,3,0.6682872772216797,1.7340793e-06,1.2500818e-06,0.000685586,0.99931145,7.7350233e-16
0,0,0.6682872772216797,0.99989533,5.928135e-14,1.6365646e-20,0.00010464122,1.5628688e-24
0,0,0.7159709930419922,0.99998033,4.554971e-12,1.4196155e-17,1.962668e-05,1.125809e-17
0,0,0.6763935089111328,1.0,1.6816959e-10,2.9409718e-21,1.3933528e-26,5.220109e-32
2,2,0.6718635559082031,2.2747053e-10,7.525808e-21,1.0,9.256732e-12,1.6586354e-18
0,0,0.6704330444335938,1.0,2.882959e-26,5.9151436e-22,5.459292e-15,8.527233e-37
0,0,0.6685256958007812,0.99999964,3.2163132e-07,3.567592e-14,1.5675768e-08,4.2728132e-33
0,0,0.6687641143798828,0.9999999,1.5224526e-07,1.2705745e-12,3.8783496e-26,2.4e-44
0,0,0.6697177886962891,1.0,2.2504128e-26,4.638832e-14,4.2401488e-13,8.79334e-14
0,0,0.6692409515380859,0.9999095,6.907805e-05,2.1304066e-05,9.171165e-10,1.8603355e-27
2,2,0.6685256958007812,9.185188e-19,0.0,1.0,2.7459676e-27,4.1223086e-28
0,0,0.6766319274902344,1.0,8.6246425e-18,4.9677624e-24,1.0981252e-24,8.909748e-21
0,0,0.6875991821289062,0.9999989,1.0525621e-06,2.5666724e-16,4.3436673e-14,4.1986583e-20
0,3,0.8134841918945312,0.00026758306,1.5447755e-08,3.104908e-14,0.99973243,3.658377e-37
0,0,0.7245540618896484,1.0,2.321865e-12,5.4940476e-18,3.9913e-23,3.6647428e-25
0,0,0.7276535034179688,0.999998,1.759991e-09,3.2338334e-18,2.0245468e-06,1.8332397e-30
0,0,0.6716251373291016,0.9999995,4.731345e-07,2.775992e-13,3.1758987e-13,6.4298405e-23
0,0,0.6711483001708984,1.0,2.6739946e-16,1.3824295e-20,0.0,8.98e-43
0,0,0.6694793701171875,0.965683,2.344711e-10,1.6980873e-16,0.034317043,7.770403e-18
0,0,0.6711483001708984,1.0,3.457449e-17,1.5240982e-21,1.1287647e-16,1.99783e-24
0,0,0.6699562072753906,0.999982,9.477231e-09,4.7477543e-15,1.7935066e-05,2.2755295e-31
0,0,0.6709098815917969,0.99999976,2.0138658e-07,2.3480475e-15,5.218341e-15,2.082e-41
0,1,0.6704330444335938,0.47339353,0.5266059,6.133289e-12,4.777005e-07,5.3643483e-33
1,1,0.6694793701171875,3.840285e-06,0.9999962,4.9001576e-16,1.1031481e-14,5.340923e-25
0,0,0.6709098815917969,0.99999905,1.5473918e-10,7.370779e-15,9.16921e-07,3.3175783e-26
0,0,0.6706714630126953,1.0,2.1650461e-08,1.5086233e-08,5.908988e-14,8.2022164e-15
0,0,0.6692409515380859,1.0,2.0207967e-14,1.3988145e-22,8.918366e-18,2.1891078e-28
1,0,0.6711483001708984,0.99999166,2.7437051e-11,8.287007e-06,2.0243968e-08,7.849903e-21
0,0,0.6716251373291016,1.0,4.716851e-12,2.9949133e-17,7.1792407e-26,2.0404516e-26
0,0,0.6990432739257812,0.9990896,0.00090984494,5.993785e-07,5.8897357e-12,5.2398166e-20
0,0,0.6709098815917969,0.99999917,7.657754e-10,8.6484204e-07,7.0748115e-14,8.823319e-22
0,0,0.6706714630126953,1.0,1.6614251e-14,1.2053862e-19,8.586927e-17,1.3665352e-23
0,0,0.6706714630126953,0.9999987,1.3510445e-06,2.6095584e-16,2.9910863e-12,1.232615e-18
0,0,0.6699562072753906,1.0,5.5796096e-10,3.6637025e-21,7.044509e-21,1.0839777e-33
0,0,0.7677078247070312,1.0,3.7716707e-16,4.0385056e-10,5.7094516e-22,1.7650275e-27
0,0,0.7581710815429688,0.9999994,8.314755e-08,4.914591e-07,2.2887578e-09,1.4185492e-24
1,0,0.7026195526123047,0.92697227,0.07302732,1.00468145e-14,4.1375196e-07,1.6662174e-30
0,0,0.6723403930664062,0.89472616,0.105238415,3.5360266e-05,1.2428586e-11,7.88351e-21
0,3,0.6725788116455078,0.0003618719,0.0012696328,8.810672e-16,0.99836844,8.3487014e-27
0,0,0.6704330444335938,0.99760747,8.0919024e-05,0.0023115536,6.1770265e-08,1.5382082e-23
0,0,0.6706714630126953,0.999877,2.2857665e-07,6.2394217e-12,0.00012275283,4.481293e-22
0,0,0.6706714630126953,0.9999671,8.43149e-10,2.5400612e-14,3.29127e-05,2.0061975e-37
0,0,0.7176399230957031,0.99999976,7.1807754e-10,4.249981e-15,1.8809713e-07,1.13918445e-17
0,0,0.6706714630126953,1.0,8.996494e-22,3.379139e-15,9.400635e-09,9.777611e-13
2,2,0.6687641143798828,3.1578477e-08,0.0,1.0,9.232064e-31,0.0
0,0,0.67138671875,1.0,1.6061408e-09,4.549927e-09,9.6074746e-14,1.7910744e-14
3,3,0.6699562072753906,6.91062e-08,2.9874316e-22,3.00331e-25,0.9999999,2.5203396e-28
0,0,0.6706714630126953,0.99913675,2.0098348e-10,5.917156e-10,0.0007859935,7.733426e-05
0,0,0.6697177886962891,0.99999976,1.3524698e-07,1.0293492e-15,1.5202109e-07,1.30566995e-14
0,0,0.6701946258544922,0.9999987,1.08816e-12,9.9125526e-17,1.3239202e-06,1.4169993e-12
0,0,0.6699562072753906,1.0,2.8646033e-10,5.3049008e-18,1.03243304e-14,2.0141717e-20
0,0,0.6692409515380859,1.0,3.882467e-10,2.0826729e-19,7.856266e-12,9.600346e-22
0,0,0.6690025329589844,0.9999999,1.2246966e-09,8.305992e-16,1.4167831e-07,3.4778023e-19
0,0,0.6709098815917969,0.9999995,4.914714e-07,1.4870993e-11,2.4854236e-09,5.0868533e-14
0,0,0.6699562072753906,1.0,7.396297e-17,2.0799727e-12,8.4258224e-13,1.9174207e-17
0,0,0.7257461547851562,0.99919695,1.0793588e-09,0.0008030721,7.898457e-11,1.5603056e-25
0,1,0.8509159088134766,1.0768495e-05,0.9999893,1.3114182e-08,3.624315e-11,1.8106137e-17
0,0,0.7162094116210938,1.0,3.5738472e-13,7.226391e-18,1.0589273e-12,0.0
0,0,0.6759166717529297,1.0,1.119427e-13,1.6463018e-15,8.834288e-11,4.404581e-26
0,0,0.6718635559082031,1.0,2.5475018e-09,9.333225e-17,5.395359e-23,1.3680304e-33
0,0,0.6701946258544922,0.99999297,9.6665495e-08,1.1464784e-18,6.9075086e-06,3.4313403e-26
0,0,0.6690025329589844,1.0,3.4300264e-13,0.0,7.987403e-15,0.0
0,0,0.6706714630126953,0.99850476,8.897932e-07,9.522046e-11,0.0014942809,6.2551386e-08
0,1,0.6694793701171875,3.0750148e-06,0.9999969,8.3815183e-26,7.260594e-21,8e-45
0,0,0.6701946258544922,0.99999976,2.516744e-07,4.3822135e-23,3.1141136e-22,2.3491277e-33
0,0,0.6716251373291016,0.9999913,8.729579e-06,8.407259e-16,1.6353715e-11,7.754077e-26
0,3,0.6690025329589844,0.0006559066,3.868677e-08,6.7506356e-09,0.9923465,0.0069974475
0,0,0.6706714630126953,1.0,6.964461e-20,4.9882024e-21,2.9801468e-30,3.8e-44
0,0,0.6694793701171875,0.9999999,1.06065e-07,7.243526e-19,1.3039082e-14,7.223269e-20
0,0,0.7150173187255859,1.0,1.5847492e-08,5.734846e-08,1.5052437e-11,2.2936566e-14
1,0,0.6709098815917969,0.99999845,1.9205011e-08,1.5043926e-06,1.1457953e-08,7.150084e-21
0,0,0.6704330444335938,0.97627467,0.023632856,9.473342e-12,9.2494425e-05,4.827293e-15
0,0,0.6701946258544922,1.0,2.9995044e-09,3.533719e-10,6.9399968e-12,6.443048e-17
0,0,0.6701946258544922,1.0,6.3769617e-15,2.0651045e-09,2.6612096e-19,5.3891352e-27
0,0,0.6692409515380859,0.9425807,2.6465372e-17,0.05737912,4.0232728e-05,1.2130867e-12
0,0,0.6697177886962891,0.9999989,3.7881742e-25,9.332202e-13,9.805021e-12,1.036216e-06
0,0,0.6866455078125,0.99937564,0.00062433636,3.666391e-21,4.2178665e-28,1.0717272e-31
0,0,0.8077621459960938,0.9999999,4.9243942e-09,1.20760285e-14,5.7597397e-08,4.6909342e-14
0,3,0.7233619689941406,0.20953186,0.001006712,3.770409e-14,0.78946143,3.8825812e-35
2,2,0.6780624389648438,7.9125315e-29,0.0,1.0,0.0,0.0
0,0,0.6699562072753906,1.0,9.1537453e-26,1.5494564e-08,1.584856e-18,2.2257094e-11
0,0,0.6699562072753906,0.9999999,4.7317967e-17,1.3291272e-16,9.096512e-08,2.4535541e-14
0,0,0.7228851318359375,0.9199662,0.00081200857,1.1832e-14,0.0792218,1.4196179e-25
0,0,0.6711483001708984,1.0,2.4163293e-12,1.6683015e-16,2.6346774e-09,6.75972e-35
0,0,0.6718635559082031,1.0,3.2512118e-11,1.6337702e-23,8.620218e-22,1.541532e-39
3,0,0.67138671875,1.0,8.058399e-32,2.5795992e-26,1.7183039e-12,2.9541975e-34
0,0,0.6697177886962891,1.0,1.1280923e-10,4.0411825e-16,4.650431e-09,5.3424675e-34
1,0,0.6709098815917969,0.9990889,1.10438846e-10,0.00090868445,2.4080714e-06,8.519562e-22
0,0,0.6706714630126953,1.0,2.2681655e-12,2.8418633e-16,3.36504e-23,2.005434e-25
2,2,0.6706714630126953,7.170431e-25,9.120837e-27,1.0,5.4650744e-34,1.551e-42
0,0,0.6699562072753906,0.9999999,1.4171317e-07,6.3735014e-17,1.0476614e-26,7.725608e-37
0,0,0.6701946258544922,1.0,2.444919e-16,5.5180733e-19,7.940883e-13,1.848383e-30
0,0,0.6701946258544922,1.0,3.730712e-11,2.51115e-10,1.9582087e-33,2.4122815e-38
0,0,0.6701946258544922,0.9999999,7.021121e-08,1.31840596e-17,3.0303678e-16,5.1513534e-37
1,0,0.6685256958007812,0.87549627,3.4614178e-09,0.11492837,0.009575291,1.8506933e-13
0,0,0.6692409515380859,1.0,1.1635698e-16,1.3993566e-10,2.7735616e-11,1.3567993e-18
0,0,0.7054805755615234,0.9999999,1.01085234e-07,1.7815745e-11,5.991084e-10,1.6794773e-29
0,0,0.6718635559082031,1.0,1.5691014e-10,4.199562e-08,1.88813e-13,1.2935404e-12
2,2,0.7660388946533203,2.1472297e-09,7.6328996e-21,1.0,3.5551917e-09,3.1844422e-27
0,4,0.7634162902832031,0.16033684,3.7325695e-08,2.9889005e-09,0.2260306,0.6136325
0,0,0.6802082061767578,0.99999547,3.440811e-12,6.7572336e-07,3.7795294e-06,7.866342e-18
0,0,0.6704330444335938,1.0,3.2607586e-10,4.0323795e-21,5.559965e-22,1.17442214e-26
0,0,0.6706714630126953,1.0,3.5131955e-17,6.0651298e-21,3.8932396e-15,3.8204e-41
0,0,0.6692409515380859,1.0,4.3073238e-13,1.3969992e-10,4.731421e-12,2.4916415e-21
0,0,0.6701946258544922,0.9999969,1.7356999e-07,1.5547481e-19,2.8709944e-06,1.7541595e-22
0,0,0.6737709045410156,1.0,5.0967678e-08,8.531429e-15,4.1711842e-11,8.1036715e-27
0,0,0.6697177886962891,1.0,1.6487696e-10,2.2926408e-15,2.8496947e-09,2.4064092e-30
0,0,0.6704330444335938,0.9999999,7.74972e-08,2.5016112e-15,1.717352e-10,8.0899355e-32
2,2,0.6699562072753906,3.1245452e-25,3.2207265e-27,1.0,1.629416e-35,1.0364682e-32
0,0,0.7181167602539062,1.0,1.8420043e-13,1.136998e-11,4.901976e-14,1.602939e-32
0,0,0.6699562072753906,1.0,4.419593e-08,1.4218196e-13,5.8482365e-11,6.4805044e-28
0,0,0.6697177886962891,0.9999999,1.0935354e-16,8.299137e-08,5.8354126e-18,8.712466e-11
0,0,0.6685256958007812,0.99999964,1.79375e-15,4.138036e-07,3.5836885e-17,5.258904e-31
0,0,0.6687641143798828,1.0,2.1107186e-15,2.1386339e-13,1.8563753e-11,9.144399e-13
0,0,0.6833076477050781,0.9999585,3.821237e-05,1.4656716e-07,3.130351e-06,9.102964e-14
0,0,0.6711483001708984,0.99999607,3.9247984e-06,1.792314e-11,2.0167102e-11,9.308263e-17
0,0,0.6687641143798828,0.9999994,2.981561e-07,7.6394464e-14,2.6740764e-07,3.303065e-29
0,0,0.6699562072753906,0.79934365,0.20065631,9.5137365e-09,3.86637e-08,4.1792176e-20
0,0,0.6687641143798828,0.999944,2.3679837e-15,4.9722004e-18,5.5975113e-05,8.533518e-16
0,0,0.7028579711914062,0.9999999,7.4970735e-08,1.12735945e-20,2.8521198e-28,3.6929915e-33
0,0,0.7753372192382812,0.9999999,1.3352353e-07,6.0602624e-13,4.7405985e-12,2.3889861e-29
0,0,0.7166862487792969,1.0,1.2893763e-14,1.3171628e-08,2.3861778e-17,1.5234357e-28
1,1,0.7271766662597656,5.623228e-15,1.0,1.2856685e-21,1.5500741e-27,2.4190373e-37
0,0,0.6754398345947266,0.9998456,7.1048123e-10,9.5260716e-11,0.00015435116,2.1075208e-11
0,0,0.6699562072753906,0.99128526,0.0009706617,0.0077440357,2.0060137e-08,6.327309e-19
0,0,0.6697177886962891,0.7485548,0.2510989,0.00034589425,3.8075717e-07,4.3267117e-20
2,2,0.6694793701171875,6.3216713e-21,2.066159e-18,1.0,3.0140238e-29,2.2675066e-28
0,0,0.6692409515380859,1.0,5.21052e-17,4.1326936e-24,1.8523567e-08,7.454064e-21
0,0,0.6697177886962891,0.9954087,6.193814e-05,9.312248e-13,0.004529297,2.562842e-19
0,0,0.6692409515380859,0.93573105,0.0642689,5.375323e-14,8.602338e-09,2.419305e-26
0,0,0.6706714630126953,1.0,4.99593e-15,4.8650754e-20,3.103748e-15,1.0040901e-30
0,0,0.6694793701171875,0.99999964,3.179321e-07,1.3712404e-22,2.221706e-29,8.216705e-32
0,0,0.6699562072753906,0.99999547,2.1240973e-11,4.265408e-06,2.3364004e-07,2.333815e-20
0,0,0.6690025329589844,1.0,1.4660586e-12,1.6753061e-21,2.6004606e-15,1.5827663e-32
0,0,0.6692409515380859,1.0,1.1459805e-16,9.2709646e-10,4.5131494e-17,5.534219e-27
0,0,0.6694793701171875,1.0,6.6014563e-09,4.6836916e-15,4.9705745e-10,1.0492986e-31
0,0,0.7033348083496094,0.99976546,0.00023449327,2.650985e-16,2.8167206e-09,1.22832474e-32
0,0,0.6709098815917969,0.9991887,3.815192e-06,3.5660594e-10,0.00080746325,1.4730949e-09
0,0,0.6697177886962891,0.8950002,0.0051998496,6.238038e-15,0.09979989,8.143077e-15
2,2,0.6704330444335938,8.379365e-08,1.3706159e-18,0.9999999,1.5696373e-21,7.3044e-41
0,0,0.6716251373291016,1.0,3.399386e-11,2.4349518e-15,8.2825036e-19,7.260274e-31
2,2,0.7781982421875,6.4069897e-34,0.0,1.0,1.4962678e-29,0.0
0,0,0.7240772247314453,1.0,3.0867527e-14,3.743595e-21,4.456165e-17,2.0976608e-28
1,1,0.6792545318603516,2.9243443e-08,1.0,7.57428e-21,9.262942e-21,9.226007e-31
0,0,0.6709098815917969,1.0,1.3359511e-13,3.646468e-14,6.6256756e-09,6.6510546e-30
0,0,0.6694793701171875,0.9910863,3.939636e-06,0.008909749,3.692774e-13,1.2336364e-26
0,0,0.6687641143798828,1.0,1.8627162e-08,6.449218e-14,3.3238507e-08,3.48491e-14
0,0,0.6711483001708984,1.0,4.0605108e-10,3.5366213e-12,3.7165197e-12,5.3092936e-33
0,0,0.6721019744873047,1.0,5.9828658e-09,3.6306356e-19,8.992636e-14,7.07208e-21
0,3,0.7159709930419922,0.010759271,6.5105696e-06,4.105446e-07,0.98923385,1.05708735e-29
0,0,0.6718635559082031,0.9999999,1.6529835e-07,1.824808e-15,6.060696e-11,4.0498392e-16
2,2,0.6694793701171875,2.751553e-22,1.608781e-20,1.0,8.2236344e-18,8.871783e-39
2,2,0.6697177886962891,7.7738174e-13,6.073082e-25,1.0,1.2854841e-18,1.74e-41
0,0,0.6704330444335938,1.0,1.1610691e-16,8.339607e-18,3.3910173e-16,1.3083723e-37
0,0,0.6685256958007812,0.9999994,5.892163e-07,1.22143e-09,6.208262e-12,3.30856e-16
0,0,0.6687641143798828,1.0,1.0878303e-18,1.6022171e-18,2.8930543e-31,1.728678e-35
0,0,0.6692409515380859,0.9999975,3.6832004e-09,2.0195354e-14,2.5508784e-06,6.0500465e-29
0,0,0.6694793701171875,0.99999964,3.2597487e-07,3.1443216e-17,1.2808032e-27,3.537487e-36
0,0,0.6680488586425781,1.0,3.127295e-09,6.489338e-20,4.48068e-23,3.9572286e-33
0,0,0.6718635559082031,1.0,4.3530628e-13,1.3337188e-16,4.340132e-08,3.1962375e-33
0,0,0.6697177886962891,1.0,4.627606e-15,2.4331619e-21,5.5538203e-21,7.412051e-26
0,1,0.6697177886962891,0.28912732,0.71086425,2.5675533e-08,8.438385e-06,1.3124309e-31
0,0,0.7150173187255859,0.9999999,1.6828567e-07,1.7476015e-12,2.5672844e-14,1.3335509e-23
0,0,0.8440017700195312,1.0,1.6811234e-12,2.6282223e-17,5.4060606e-12,2.4239904e-28
0,0,0.7030963897705078,0.9897507,5.763838e-15,1.5869349e-16,0.010249298,5.0407084e-24
0,0,0.6749629974365234,1.0,2.4102888e-13,0.0,7.0829144e-19,2.7e-44
0,1,0.6690025329589844,0.033738483,0.9662615,1.3574261e-10,2.9932627e-21,1.508294e-17
2,2,0.6697177886962891,1.216493e-20,0.0,0.99994874,5.124773e-05,3.878791e-39
0,0,0.6709098815917969,1.0,3.1218968e-12,1.8234975e-10,8.068261e-12,1.3017348e-24
0,0,0.6706714630126953,0.9999989,1.0173896e-06,1.5956543e-08,2.169149e-11,1.573145e-25
0,0,0.6697177886962891,1.0,1.1074034e-12,1.1333946e-08,1.0238472e-15,2.3144783e-29
0,0,0.6697177886962891,1.0,7.5931e-13,5.962856e-22,2.9469507e-18,1.3308515e-32
0,0,0.6701946258544922,1.0,1.0621612e-13,8.207482e-21,1.4123923e-20,3.0188407e-24
0,0,0.6709098815917969,1.0,2.0923035e-16,5.555757e-18,6.4487573e-12,7.704709e-23
0,0,0.6692409515380859,0.99982625,0.00017365122,1.1965227e-07,8.5249787e-13,3.5051303e-24
0,0,0.6694793701171875,1.0,1.7381742e-08,4.1077785e-18,1.0560711e-12,6.238491e-22
0,0,0.7152557373046875,0.9996357,0.00034907318,1.0120547e-10,1.5266123e-05,3.5086718e-26
0,0,0.6711483001708984,0.99999976,1.8178308e-07,3.3539773e-09,2.4011614e-17,1.9887414e-33
0,0,0.6699562072753906,1.0,2.065271e-08,9.5967606e-14,1.195863e-10,4.6775176e-28
0,0,0.6706714630126953,0.99999726,2.5056079e-06,9.647338e-09,1.8615665e-07,2.4850119e-19
0,0,0.6697177886962891,1.0,3.139002e-09,2.0288519e-15,6.088051e-11,1.020664e-39
2,2,0.6692409515380859,5.798028e-17,1.3494954e-18,1.0,6.608723e-21,1.3762395e-38
0,0,0.67138671875,0.94325244,7.277047e-05,0.056662973,1.17671825e-05,4.6791924e-12
2,2,0.6780624389648438,2.8127995e-05,5.1836138e-15,0.9999716,2.2283544e-07,1.6663859e-29
0,0,0.7987022399902344,0.9993389,0.00066110527,1.600568e-15,9.202385e-10,4.865024e-23
0,0,0.7431507110595703,1.0,2.3089229e-14,2.6325255e-18,8.395918e-17,2.7107115e-38
0,0,0.6773471832275391,1.0,4.3734607e-13,1.6174113e-16,3.230809e-09,1.6359058e-12
0,0,0.6692409515380859,0.93693566,0.06306377,5.8771155e-07,1.8678216e-10,3.0785545e-17
1,1,0.6718635559082031,0.00010796469,0.999892,2.3675153e-17,5.2856014e-19,4.171502e-35
0,0,0.8587837219238281,1.0,1.2041777e-11,1.1918607e-35,1.932828e-17,6.79225e-40
2,2,0.7550716400146484,0.00019261977,0.0,0.9998074,8.386398e-24,7.815228e-30
1,1,0.6918907165527344,9.113475e-13,1.0,1.1837851e-14,3.2963366e-27,3.1663767e-30
0,3,0.6735324859619141,1.2781279e-05,5.9252664e-10,1.8818977e-08,0.9999871,1.5995853e-07
0,0,0.6697177886962891,1.0,2.0762818e-09,4.701163e-22,1.862166e-19,9.5625576e-36
0,0,0.6697177886962891,1.0,2.5575307e-13,1.9630949e-23,2.1782102e-15,1.3598561e-26
0,0,0.6968975067138672,0.83421665,1.6480404e-19,0.16578335,3.6350548e-14,8.236731e-11
0,0,0.6730556488037109,0.99989784,0.00010212003,1.5491199e-09,8.730083e-09,7.3696125e-37
0,0,0.6697177886962891,1.0,0.0,4.6074566e-22,7.6847674e-26,8.665649e-22
0,0,0.6694793701171875,1.0,9.3663236e-17,4.0165453e-09,4.3627626e-17,1.0467889e-29
2,2,0.6725788116455078,1.2799152e-34,0.0,1.0,1.6700836e-17,0.0
0,0,0.6704330444335938,1.0,1.34142275e-17,1.6858923e-19,4.035192e-15,4.60077e-40
0,0,0.6694793701171875,0.9999968,3.2038429e-06,1.156087e-19,8.746542e-14,4.7367092e-33
0,0,0.6690025329589844,1.0,5.237993e-09,1.908468e-16,5.4888954e-10,2.851983e-17
0,0,0.8168220520019531,0.9982114,1.5615444e-12,8.2671967e-16,0.0017886808,1.6083166e-15
0,0,0.7767677307128906,0.9999999,1.649412e-07,3.448101e-11,4.3557673e-14,3.0661252e-30
0,0,0.8101463317871094,0.99999833,9.723599e-07,1.6330095e-09,7.5270395e-07,2.144226e-28
0,0,0.7433891296386719,1.0,7.216186e-14,2.0917679e-13,1.3086603e-17,1.1524856e-32
0,0,0.6783008575439453,1.0,1.8127613e-10,3.0067315e-14,4.4173607e-15,7.731645e-24
2,2,0.6749629974365234,2.8765055e-07,5.7418756e-13,0.99999344,3.2667085e-13,6.295758e-06
0,3,0.6747245788574219,1.3104506e-05,9.2651945e-12,1.3634958e-10,0.9999869,2.4051528e-11
0,0,0.6723403930664062,0.9999393,4.8249977e-09,3.3647213e-11,6.063284e-05,3.38191e-24
0,0,0.6780624389648438,1.0,2.234516e-21,4.4418984e-14,8.5525415e-12,5.3677414e-25
2,2,0.6728172302246094,1.2887414e-15,1.9950292e-15,1.0,1.1402104e-18,7.328991e-35
0,0,0.6804466247558594,1.0,5.724992e-18,1.7379093e-19,3.6068285e-16,7.122611e-33
0,0,0.6778240203857422,1.0,3.5959488e-08,1.976828e-08,1.1368322e-09,1.67999e-29
0,0,0.7262229919433594,1.0,3.877218e-15,2.2418512e-20,3.4971002e-15,5.2332663e-25
0,0,0.6771087646484375,1.0,1.6973261e-20,6.1994236e-13,9.327379e-19,1.19e-42
0,0,0.6759166717529297,0.99436617,1.6556494e-13,0.005487255,0.00014572406,9.334783e-07
0,0,0.675201416015625,1.0,6.7971644e-12,4.551434e-37,1.4571482e-13,1.32e-43
0,0,0.6735324859619141,0.9999995,2.2455589e-10,7.984255e-09,5.1698026e-07,2.4046205e-21
0,0,0.6737709045410156,1.0,2.4995217e-08,8.7516433e-14,6.849024e-16,1.0908268e-32
0,0,0.6747245788574219,1.0,6.8186706e-11,4.1281928e-10,2.159339e-15,9.2441e-19
0,0,0.6918907165527344,1.0,7.3635597e-16,5.5866024e-15,2.5306155e-16,1.9088663e-18
0,0,0.6773471832275391,1.0,2.9706027e-10,1.1570637e-15,2.3198873e-11,5.807081e-32
0,0,0.6778240203857422,0.9999994,1.7524935e-09,6.5092974e-07,1.2351746e-10,7.191162e-25
0,0,0.7033348083496094,0.999798,1.2555423e-08,4.033263e-18,0.0002020626,1.5478418e-18
3,3,0.8091926574707031,2.2048617e-15,1.1964713e-19,3.0572178e-28,1.0,0.0
0,1,0.7617473602294922,0.4420936,0.55491805,5.309422e-10,0.0029882898,3.374299e-30
0,0,0.7245540618896484,0.9999999,7.6140553e-13,6.0506e-19,1.443819e-07,1.5787018e-32
0,0,0.6749629974365234,1.0,4.8407117e-13,9.613545e-21,3.2657462e-20,1.312884e-19
0,0,0.6730556488037109,1.0,1.1919358e-16,3.4618824e-10,4.1403752e-18,7.188299e-29
0,0,0.6747245788574219,1.0,1.869725e-08,2.7908385e-12,4.9093233e-13,7.309251e-20
1,0,0.6771087646484375,0.9999682,6.802315e-07,3.111355e-05,5.3517514e-08,3.5403703e-15
0,0,0.6747245788574219,1.0,3.3636128e-17,2.7129174e-14,1.789155e-11,4.086339e-31
1,3,0.6766319274902344,2.3000212e-05,0.0009332573,4.1930537e-10,0.99904376,5.7601198e-30
0,0,0.6761550903320312,1.0,7.3793993e-10,3.539857e-14,4.1897665e-13,5.1928526e-27
0,0,0.6742477416992188,0.9999999,1.0077183e-07,3.4253145e-23,1.3609508e-19,8.109348e-30
0,0,0.675201416015625,1.0,4.2958025e-14,1.1774197e-17,4.0304023e-14,5.828393e-37
0,0,0.6756782531738281,0.9999496,5.0372433e-05,2.6376009e-17,1.2096545e-09,4.7010788e-18
0,0,0.6732940673828125,1.0,3.7551303e-17,4.0116249e-19,8.398638e-14,6.7138e-41
0,0,0.6737709045410156,0.99766505,0.0023348937,7.0487047e-22,6.841615e-08,9.163288e-26
0,0,0.6716251373291016,1.0,3.4809852e-21,6.9714334e-10,1.0538441e-15,9.378354e-28
0,3,0.7026195526123047,2.272822e-06,1.17346335e-05,9.781485e-17,0.99998605,3.1716965e-32
0,0,0.6785392761230469,1.0,5.709159e-14,3.4306964e-19,5.3628313e-17,1.1193048e-25
0,0,0.6756782531738281,0.9999993,5.383238e-07,3.771037e-15,1.5159407e-07,1.4257837e-35
0,0,0.6802082061767578,1.0,2.7228512e-13,1.1622915e-17,5.2169454e-24,1.7590825e-23
0,3,0.705718994140625,1.42572135e-05,3.9136918e-08,5.9217325e-07,0.9999851,4.7410866e-09
0,0,0.8370876312255859,0.99885,0.0011371255,3.679551e-12,1.2842934e-05,2.999994e-32
1,0,0.7579326629638672,0.99998987,2.1922615e-09,1.0110013e-05,8.723862e-09,2.7991164e-19
0,0,0.6849765777587891,1.0,2.3586815e-19,9.841176e-23,1.527717e-12,5.856092e-38
0,0,0.6759166717529297,1.0,3.3301293e-14,3.4339645e-22,6.0610458e-33,3.454823e-33
0,0,0.6732940673828125,1.0,2.7115883e-25,1.0376852e-20,8.969035e-17,5.9985645e-28
0,0,0.6744861602783203,0.9999968,3.2749408e-06,3.4313403e-11,2.1248322e-12,1.020249e-39
0,0,0.6759166717529297,0.9999999,3.1020762e-09,1.8344493e-12,7.9452654e-08,1.148258e-12
0,1,0.6773471832275391,0.01543627,0.98454386,2.6090412e-08,1.9838879e-05,2.3800651e-17
0,0,0.7252693176269531,0.97949547,0.020504562,2.16684e-22,1.0568823e-25,0.0
2,2,0.6766319274902344,2.609838e-18,2.2290924e-29,1.0,5.124005e-18,1.6757679e-34
0,0,0.6728172302246094,1.0,8.899493e-13,2.719333e-20,3.727592e-21,1.23566415e-23
0,0,0.6759166717529297,0.9999981,1.9387685e-06,3.2034606e-24,3.0498915e-24,1.634111e-29
0,0,0.6749629974365234,1.0,1.2860747e-30,3.2433255e-12,1.744367e-17,6e-45
0,0,0.6735324859619141,0.99999976,1.8789007e-07,6.4575048e-09,1.3338737e-12,2.663036e-27
0,0,0.6744861602783203,0.9999999,1.4278743e-13,6.957372e-08,6.2307304e-13,4.7556815e-25
0,0,0.6740093231201172,1.0,2.4176133e-10,6.536587e-22,1.0881191e-21,4.0693918e-27
0,0,0.6756782531738281,0.9999989,9.249029e-19,8.454112e-17,1.0699699e-06,3.0996552e-27
0,0,0.6737709045410156,1.0,1.6518863e-17,1.5321487e-13,3.4097226e-08,1.0547519e-17
0,0,0.6735324859619141,1.0,6.0336257e-15,5.1260165e-19,4.0372836e-24,2.559599e-21
0,3,0.6785392761230469,0.00096042,1.3920856e-08,1.49342e-10,0.99900323,3.6277925e-05
0,0,0.6847381591796875,1.0,2.4483996e-13,7.570117e-37,3.04193e-14,8.60178e-39
0,0,0.8063316345214844,1.0,2.3323357e-08,1.1114926e-18,1.467868e-17,2.8765313e-34
2,2,0.7035732269287109,1.8863513e-21,1.4987292e-30,1.0,6.1417604e-26,0.0
0,0,0.6787776947021484,0.9994617,0.0005382851,1.6277582e-10,2.2739046e-15,4.444138e-19
0,0,0.6747245788574219,1.0,2.3690376e-08,2.6898201e-17,4.0517705e-09,2.1203e-41
0,0,0.6740093231201172,1.0,4.5188474e-19,2.970077e-13,7.895982e-28,1.36e-43
0,0,0.6749629974365234,0.9994081,0.0005916107,3.33034e-08,3.2047933e-07,1.5038634e-13
0,0,0.6725788116455078,1.0,9.6777454e-11,3.2746322e-10,2.1693647e-09,1.5649484e-23
0,0,0.67901611328125,0.9999993,5.7486875e-07,6.5737616e-08,1.3469933e-09,7.0427735e-24
0,0,0.6763935089111328,0.9986707,0.0013293505,5.2536453e-10,8.6766645e-13,6.833688e-23
0,0,0.6754398345947266,1.0,3.2905047e-21,7.767205e-25,1.8600414e-21,2.4633364e-21
0,0,0.6761550903320312,0.79750246,0.20249756,2.560099e-09,7.390779e-11,7.5637475e-16
0,0,0.6747245788574219,0.9999995,2.907246e-24,3.2166042e-07,5.070889e-14,1.11465305e-07
0,1,0.6747245788574219,0.10889636,0.8911036,2.549282e-10,1.1201986e-10,4.0986216e-27
0,0,0.6749629974365234,1.0,1.4276234e-10,1.2520296e-11,8.4569574e-10,1.2928445e-35
0,0,0.7140636444091797,0.99999976,5.9722296e-08,6.631069e-10,1.316293e-07,1.1859699e-18
0,0,0.6756782531738281,0.99999964,2.790988e-07,1.6042092e-08,8.417359e-08,3.700216e-15
0,0,0.6737709045410156,1.0,4.7747056e-10,9.1402085e-18,2.2558951e-12,3.3882025e-21
1,1,0.6902217864990234,1.6839142e-08,0.99999917,8.436293e-07,2.33449e-10,5.1725243e-12
0,0,0.6775856018066406,0.9998388,0.00015967811,6.932632e-09,1.5207673e-06,3.700069e-17
0,0,0.6744861602783203,1.0,5.1077788e-14,8.7861895e-35,1.4840842e-16,4.9396836e-38
0,3,0.6723403930664062,0.032763477,0.0022605155,1.2730693e-06,0.9649747,1.7859299e-12
0,0,0.7331371307373047,1.0,8.0636386e-10,2.3650527e-18,3.1118573e-11,3.6702467e-22
0,0,0.7307529449462891,1.0,1.696905e-09,2.5374004e-13,2.9366883e-14,9.327292e-22
0,0,0.6804466247558594,0.9999981,1.0616049e-08,7.645009e-13,1.856003e-06,1.1316306e-29
0,0,0.6742477416992188,1.0,2.4549752e-16,8.503323e-23,2.1173643e-22,1.7622199e-37
0,0,0.6723403930664062,1.0,2.5096786e-15,1.3896506e-22,1.2601795e-16,4.4257792e-29
0,0,0.6899833679199219,1.0,2.1995075e-10,3.7224116e-14,4.3551374e-10,5.4477914e-36
0,0,0.7216930389404297,1.0,2.438205e-15,8.4869253e-23,5.607618e-13,5.738924e-24
0,0,0.6754398345947266,0.9999999,7.540109e-08,1.9994709e-11,2.2374933e-09,3.10985e-23
0,0,0.6742477416992188,0.99989986,9.9780314e-05,1.2866157e-11,3.661692e-07,2.3471876e-21
0,0,0.6783008575439453,1.0,1.2753408e-08,5.0929064e-17,2.3269269e-28,4.3414884e-35
0,0,0.6756782531738281,0.9997501,1.1833902e-06,8.0008215e-11,0.00024879255,5.353582e-39
0,0,0.6721019744873047,0.99999785,1.2453133e-07,2.518864e-13,2.0213479e-06,5.160687e-29
0,0,0.6747245788574219,0.9999945,5.4836028e-06,1.3546051e-17,9.113043e-13,1.1859821e-25
0,0,0.6749629974365234,1.0,2.7125204e-13,3.9330946e-08,3.8966606e-13,1.4576006e-10
0,0,0.6732940673828125,0.99999607,3.7586726e-06,5.214725e-13,1.5082655e-07,3.1555358e-30
2,2,0.6730556488037109,1.478134e-17,6.788507e-28,1.0,6.297202e-26,4.013e-42
0,0,0.6747245788574219,1.0,1.312612e-14,8.220268e-13,3.2375592e-08,3.9016808e-24
0,0,0.6725788116455078,1.0,1.0405161e-11,2.190102e-09,5.691016e-13,3.3623796e-14
0,2,0.6742477416992188,0.27488524,0.3475166,0.37719366,0.0004045267,8.583541e-16
0,0,0.6749629974365234,0.99999905,8.635289e-13,9.273033e-16,8.945119e-07,5.2208498e-36
0,0,0.7140636444091797,1.0,5.166859e-12,1.5383984e-35,5.6695563e-16,0.0
0,0,0.6847381591796875,1.0,2.2685514e-15,9.623765e-17,2.4337645e-14,1.1833525e-20
0,0,0.8246898651123047,1.0,2.1664997e-16,9.022348e-20,4.3095054e-15,8.723784e-39
2,2,0.8380413055419922,9.474565e-24,5.902529e-27,1.0,2.6182418e-35,2.1705131e-37
0,0,0.7987022399902344,0.9999988,1.2318566e-06,4.3803127e-19,2.1974844e-17,5.52232e-34
0,2,0.7171630859375,0.2527449,2.5540559e-09,0.7472533,1.8133878e-06,4.6189782e-17
0,0,0.6802082061767578,1.0,2.9812964e-14,2.4550477e-18,4.702361e-16,4.037293e-34
0,0,0.6747245788574219,0.8931706,0.10682937,2.9368141e-09,2.4352305e-08,4.0118213e-17
0,0,0.6804466247558594,0.99909306,3.8710726e-11,5.0076237e-17,0.0009069087,2.5004682e-22
0,0,0.6773471832275391,1.0,9.918621e-09,1.8458564e-12,3.4858577e-12,1.5152813e-20
0,0,0.6749629974365234,1.0,5.2036253e-14,6.2308475e-10,2.5969447e-20,2.1756179e-16
0,0,0.6759166717529297,0.64658856,0.00051266054,5.817895e-07,0.35289815,2.3905002e-24
0,3,0.7517337799072266,4.5525114e-14,1.2869304e-12,6.215403e-22,1.0,2.72571e-40
0,0,0.6778240203857422,1.0,2.9155182e-11,1.0336162e-12,2.1521682e-15,1.2533611e-25
0,0,0.6737709045410156,1.0,6.858091e-10,1.0191828e-11,4.455224e-12,9.953113e-31
0,3,0.6732940673828125,0.2933178,0.00059314945,1.02869976e-13,0.7060891,3.5068848e-36
0,0,0.6740093231201172,0.99987257,2.4066242e-07,0.00012712383,2.9121916e-10,1.9754103e-24
0,0,0.6740093231201172,1.0,1.5758557e-10,1.0460916e-08,3.925102e-10,4.0550235e-21
0,0,0.6735324859619141,0.9855516,6.0143384e-16,1.6281472e-20,0.014448451,8.4421775e-20
0,0,0.6775856018066406,0.9751923,1.6303585e-10,1.196837e-05,0.02479576,1.6976396e-15
0,0,0.6756782531738281,0.99999976,1.8977065e-07,1.15095e-13,9.709771e-14,2.253097e-29
0,0,0.6806850433349609,1.0,2.4570134e-27,1.5632652e-24,7.140992e-21,1.5520979e-19
0,0,0.7448196411132812,1.0,2.5650901e-23,5.1391044e-23,2.8527287e-36,1.2446955e-38
0,0,0.8094310760498047,1.0,4.7941637e-09,4.4548174e-19,6.00901e-20,6.242792e-32
0,0,0.7338523864746094,1.0,5.3949182e-11,2.7101027e-15,1.0968566e-09,1.2688892e-34
0,0,0.7352828979492188,1.0,1.3244357e-12,1.13730735e-20,2.1419482e-21,8.9155396e-26
0,0,0.6728172302246094,1.0,9.05571e-16,6.343052e-20,0.0,2.3750088e-31
0,0,0.6728172302246094,0.9999999,2.0100642e-21,3.9685355e-26,1.2041846e-07,1.1445999e-23
0,0,0.6728172302246094,0.98694104,2.069229e-06,1.9554022e-07,0.013056664,5.502461e-14
0,0,0.6797313690185547,1.0,1.4540352e-14,4.5450166e-21,2.139123e-21,7.2395226e-26
0,0,0.6778240203857422,0.9999988,1.5326536e-08,2.5182791e-14,1.2287168e-06,1.5191861e-35
0,0,0.6744861602783203,1.0,1.4378169e-13,4.047927e-15,1.420402e-09,1.0610878e-32
0,0,0.6754398345947266,1.0,2.5185894e-14,1.6406394e-24,1.2659426e-15,3.7570337e-18
1,0,0.6744861602783203,1.0,5.202762e-29,8.077151e-22,7.734165e-21,2.748615e-22
0,0,0.6742477416992188,0.7846729,0.0013917256,0.000101159996,0.2138342,8.2666693e-32
0,0,0.6754398345947266,0.9999931,6.6673224e-06,1.4879686e-08,2.0020106e-07,1.3231978e-18
0,0,0.6737709045410156,0.99999833,9.492805e-08,4.6395476e-15,1.5560925e-06,5.619739e-32
0,3,0.6735324859619141,0.00094368745,4.9721905e-07,4.7991557e-09,0.9990557,1.7302915e-07
0,0,0.6732940673828125,0.99999976,2.0749215e-07,1.906582e-17,3.000048e-16,1.1e-44
0,0,0.6868839263916016,0.9999839,3.1497863e-22,1.0141023e-21,1.6037182e-05,3.1340968e-37
2,2,0.6804466247558594,3.0687036e-28,0.0,1.0,4.1362794e-29,0.0
0,0,0.6744861602783203,1.0,8.18742e-10,1.201218e-08,5.613816e-16,1.1871834e-18
0,0,0.6754398345947266,0.99999976,6.453453e-17,1.4132737e-23,2.846929e-07,7.751451e-26
0,0,0.7326602935791016,0.99980456,0.0001949104,6.5430163e-07,3.3776735e-11,1.4927766e-22
0,1,0.8137226104736328,0.048575364,0.9514246,3.4846693e-08,2.0266944e-11,2.425663e-19
0,0,0.7369518280029297,1.0,5.775077e-15,2.4876258e-20,3.4760828e-13,2.8810836e-30
0,0,0.6792545318603516,1.0,1.43746245e-33,1.4251168e-19,3.9824182e-23,2.2948e-41
0,0,0.6735324859619141,0.9999999,1.4768678e-14,4.1840393e-17,6.273868e-08,1.6767357e-31
0,3,0.6895065307617188,5.2167165e-06,3.1224372e-14,8.6843864e-18,0.99999475,1.7e-42
0,0,0.6744861602783203,1.0,7.661109e-13,1.6420281e-18,4.523442e-16,2.1344467e-26
0,0,0.6787776947021484,0.99999976,2.0100858e-07,8.253579e-19,2.8233606e-18,5.7571e-41
0,0,0.7224082946777344,0.99999964,4.0649013e-07,2.3470646e-13,4.4963616e-12,3.0613475e-28
0,0,0.6763935089111328,1.0,1.0915935e-12,4.9936916e-11,2.057124e-09,3.979243e-31
0,0,0.6759166717529297,1.0,2.9139868e-09,5.5005916e-10,1.0070433e-16,7.174191e-14
2,2,0.6775856018066406,5.6024285e-26,0.0,1.0,5.4222384e-25,0.0
0,0,0.6742477416992188,1.0,2.9710956e-10,1.7032052e-13,1.475517e-21,3.7319604e-28
0,0,0.6744861602783203,1.0,1.32891575e-14,5.2428665e-22,4.247212e-22,4.2718456e-29
0,0,0.6804466247558594,1.0,5.946971e-09,4.209069e-21,7.5557324e-34,3.4e-44
0,0,0.6742477416992188,1.0,4.877229e-12,1.5301983e-20,9.00891e-18,3.0849235e-28
0,0,0.6735324859619141,0.9999541,4.5908808e-05,1.6964995e-10,7.437059e-11,3.022028e-19
0,0,0.6737709045410156,1.0,4.1638297e-27,6.3704307e-12,1.94423e-18,3.346059e-29
0,0,0.6773471832275391,0.99998677,2.0710992e-14,8.005565e-16,1.327878e-05,8.902297e-20
0,0,0.6744861602783203,0.9963683,0.0036317208,5.901177e-14,2.4544498e-11,9.252239e-38
0,0,0.6744861602783203,1.0,3.0756044e-14,2.6976709e-17,1.3867748e-11,6.25739e-15
0,0,0.7224082946777344,0.99998105,1.8955023e-05,3.0907596e-10,2.0303514e-10,4.9577474e-24
0,2,0.8978843688964844,3.3223776e-05,1.7114132e-08,0.99918073,0.0007859981,2.8284729e-25
0,0,0.7641315460205078,0.99999964,4.274147e-12,4.5210835e-09,3.4755087e-07,2.3788023e-20
0,0,0.682830810546875,1.0,4.39131e-19,7.7219404e-11,1.5984748e-18,7.8203387e-31
0,0,0.6754398345947266,0.99910045,6.428503e-10,1.1337433e-19,0.0008995952,8.274738e-26
0,0,0.6744861602783203,1.0,1.2979434e-10,1.1409358e-20,4.817198e-09,8.804274e-27
0,3,0.6737709045410156,0.00049345515,0.0010236971,6.3720442e-09,0.9984829,1.4671676e-14
0,0,0.6802082061767578,1.0,2.0266916e-17,3.1470339e-25,5.8884897e-10,1.1755962e-19
0,0,0.6778240203857422,0.9999335,6.654935e-05,5.5615333e-19,2.9041751e-22,7.1493503e-35
0,0,0.6763935089111328,1.0,1.1024413e-14,6.666006e-14,3.3156682e-09,2.9735796e-32
0,0,0.6759166717529297,1.0,3.7600152e-11,3.1245243e-08,9.142847e-13,1.1366656e-12
0,0,0.6866455078125,0.99999964,3.8343055e-07,2.0550748e-18,1.9200188e-13,5.612285e-19
0,0,0.6732940673828125,1.0,2.7106243e-19,9.781825e-21,1.11210615e-13,5.000161e-38
0,0,0.6763935089111328,0.9999999,3.114285e-19,8.657913e-08,7.606196e-11,5.8703467e-28
0,0,0.7240772247314453,0.9999999,6.754632e-08,7.4716685e-18,4.456422e-12,1.9687491e-23
0,0,0.6766319274902344,0.9999999,1.2561343e-07,3.0794076e-14,1.0578341e-10,9.107157e-30
0,0,0.6735324859619141,1.0,1.7055269e-16,2.7332964e-23,7.125679e-19,6.464921e-29
1,0,0.6737709045410156,1.0,8.029635e-12,1.703817e-08,9.925626e-12,1.1820293e-22
0,0,0.6785392761230469,1.0,2.8650925e-08,9.5716507e-20,2.5010313e-21,7.563e-42
0,0,0.6778240203857422,1.0,3.1460853e-10,8.0562135e-10,6.1526284e-15,1.7775396e-14
0,0,0.6852149963378906,0.9999913,5.9312782e-08,1.4151656e-16,8.617483e-06,9.6140245e-33
3,0,0.7445812225341797,1.0,0.0,2.5635373e-21,5.7240757e-10,9.04093e-40
0,0,0.8101463317871094,1.0,6.0849343e-09,2.026533e-21,1.4505796e-12,2.0929381e-27
0,0,0.7345676422119141,0.99999475,2.9673763e-10,1.3072314e-17,5.2839005e-06,5.159642e-16
0,0,0.6833076477050781,1.0,2.9049545e-15,4.360828e-19,2.2767602e-16,3.8400337e-24
0,0,0.6737709045410156,0.56801385,0.43198618,2.2791406e-08,5.7475286e-10,1.4561197e-35
0,0,0.6747245788574219,1.0,1.9603156e-11,1.9995127e-19,5.0974815e-14,2.8922583e-24
0,0,0.7295608520507812,0.9999814,1.6750155e-18,4.2143793e-18,1.864179e-05,3.8118626e-19
0,0,0.6804466247558594,0.9999999,3.33805e-08,6.562696e-14,4.1483556e-08,1.3533427e-08
0,0,0.6921291351318359,1.0,1.3782402e-17,3.768687e-08,1.8118985e-16,7.4896883e-22
0,0,0.6749629974365234,0.9999807,5.450093e-38,6.796676e-14,7.255491e-10,1.9310299e-05
0,0,0.6761550903320312,1.0,9.651439e-19,4.8600707e-11,3.9969628e-18,6.484157e-30
0,0,0.6747245788574219,1.0,4.784973e-13,6.329879e-20,2.7095196e-18,6.4501603e-23
0,0,0.6735324859619141,0.9999981,1.5470388e-22,1.8994805e-06,2.3703566e-20,5.1826943e-18
0,0,0.6749629974365234,1.0,1.0365256e-21,3.620214e-08,4.6052718e-17,4.5943163e-27
0,0,0.6725788116455078,0.9999982,1.6095275e-06,9.255357e-08,6.332242e-10,5.1676626e-14
0,0,0.6756782531738281,0.99999905,7.850983e-07,3.5652788e-13,1.5890691e-07,1.5591042e-27
0,0,0.6735324859619141,0.9999957,1.1336064e-11,5.231646e-07,3.762516e-06,1.0657113e-18
0,2,0.6744861602783203,0.38971117,1.748565e-20,0.6068767,0.0034121515,1.454633e-12
0,0,0.6780624389648438,0.9999995,3.7936118e-07,8.4300093e-14,1.224173e-07,1.6457634e-27
0,3,0.7059574127197266,1.0563487e-05,1.4081412e-08,3.5017423e-11,0.9999894,3.7024523e-37
0,1,0.6763935089111328,0.02337314,0.97662693,8.125752e-11,4.8724253e-08,2.6655585e-12
0,0,0.7343292236328125,1.0,3.660342e-10,1.05922435e-08,1.3801589e-08,4.820694e-15
0,3,0.8242130279541016,0.008506235,0.00084534945,0.0007277145,0.9899206,5.0945796e-26
0,0,0.7340908050537109,1.0,1.7373145e-17,6.872443e-25,1.6214152e-15,3.8815604e-34
