,label,pred,exec_time_ms
0,0,0,0.507354736328125
1,0,0,0.20933151245117188
2,1,0,0.24843215942382812
3,0,0,0.19788742065429688
4,2,2,0.1823902130126953
5,2,2,0.16808509826660156
6,0,0,0.16307830810546875
7,0,0,0.1628398895263672
8,0,0,0.17762184143066406
9,0,0,0.1819133758544922
10,0,0,0.17905235290527344
11,0,0,0.17642974853515625
12,0,0,0.16236305236816406
13,0,0,0.16164779663085938
14,0,0,0.16188621520996094
15,3,3,0.1614093780517578
16,0,0,0.16164779663085938
17,0,0,0.16117095947265625
18,2,2,0.15974044799804688
19,1,1,0.16045570373535156
20,0,0,0.1659393310546875
21,0,0,0.2110004425048828
22,0,0,0.17905235290527344
23,2,2,0.2014636993408203
24,0,0,0.1823902130126953
25,0,2,0.17118453979492188
26,0,0,0.16307830810546875
27,0,0,0.164031982421875
28,0,0,0.17118453979492188
29,0,0,0.1647472381591797
30,0,0,0.16427040100097656
31,0,0,0.1652240753173828
32,0,0,0.1614093780517578
33,0,0,0.17499923706054688
34,0,0,0.1914501190185547
35,0,0,0.1823902130126953
36,0,0,0.19168853759765625
37,0,0,0.1895427703857422
38,0,0,0.20575523376464844
39,0,0,0.19693374633789062
40,0,0,0.18286705017089844
41,0,0,0.1704692840576172
42,2,2,0.16808509826660156
43,0,0,0.17547607421875
44,0,0,0.19311904907226562
45,0,0,0.19216537475585938
46,0,0,0.1900196075439453
47,0,0,0.1850128173828125
48,0,0,0.17213821411132812
49,0,0,0.15974044799804688
50,0,0,0.16427040100097656
51,0,0,0.1628398895263672
52,0,0,0.16260147094726562
53,0,0,0.16355514526367188
54,0,0,0.16307830810546875
55,0,0,0.16188621520996094
56,0,0,0.21529197692871094
57,0,0,0.1933574676513672
58,0,0,0.17595291137695312
59,0,0,0.17261505126953125
60,0,3,0.16832351684570312
61,0,0,0.16236305236816406
62,2,2,0.164031982421875
63,0,0,0.16021728515625
64,0,0,0.16498565673828125
65,0,0,0.164031982421875
66,0,0,0.16236305236816406
67,0,0,0.16427040100097656
68,1,0,0.16760826110839844
69,0,0,0.1862049102783203
70,0,0,0.17714500427246094
71,0,0,0.1785755157470703
72,0,0,0.18262863159179688
73,0,0,0.18835067749023438
74,0,0,0.23365020751953125
75,0,0,0.202178955078125
76,0,0,0.18906593322753906
77,1,0,0.18167495727539062
78,0,0,0.16188621520996094
79,0,0,0.1575946807861328
80,0,0,0.16188621520996094
81,0,0,0.1647472381591797
82,1,1,0.16260147094726562
83,0,0,0.15783309936523438
84,0,0,0.1583099365234375
85,0,0,0.156402587890625
86,0,0,0.15974044799804688
87,0,0,0.16570091247558594
88,0,0,0.16117095947265625
89,0,0,0.16379356384277344
90,0,0,0.1590251922607422
91,0,0,0.1571178436279297
92,0,0,0.15783309936523438
93,0,0,0.16236305236816406
94,0,0,0.17762184143066406
95,0,0,0.16164779663085938
96,1,2,0.1590251922607422
97,0,0,0.16307830810546875
98,0,0,0.15783309936523438
99,0,0,0.15878677368164062
100,2,2,0.1628398895263672
101,0,0,0.15687942504882812
102,0,0,0.17833709716796875
103,0,0,0.16546249389648438
104,0,0,0.16236305236816406
105,0,0,0.16045570373535156
106,0,0,0.1628398895263672
107,2,2,0.1628398895263672
108,0,0,0.1595020294189453
109,0,0,0.1571178436279297
110,0,0,0.16427040100097656
111,0,0,0.1583099365234375
112,0,0,0.15997886657714844
113,0,0,0.19431114196777344
114,0,0,0.16570091247558594
115,0,0,0.1671314239501953
116,0,0,0.16427040100097656
117,0,0,0.1621246337890625
118,0,0,0.16236305236816406
119,0,0,0.16069412231445312
120,0,0,0.15854835510253906
121,0,0,0.15783309936523438
122,0,0,0.15664100646972656
123,0,0,0.16021728515625
124,0,0,0.16117095947265625
125,0,0,0.1609325408935547
126,0,0,0.16307830810546875
127,0,0,0.1614093780517578
128,0,0,0.16355514526367188
129,0,0,0.16069412231445312
130,0,0,0.15783309936523438
131,0,0,0.1614093780517578
132,0,0,0.1621246337890625
133,0,0,0.1819133758544922
134,0,0,0.16427040100097656
135,0,0,0.1659393310546875
136,0,0,0.15974044799804688
137,0,0,0.1628398895263672
138,0,0,0.1628398895263672
139,0,0,0.1609325408935547
140,0,0,0.16117095947265625
141,0,0,0.15783309936523438
142,0,0,0.16045570373535156
143,0,0,0.1652240753173828
144,0,0,0.1647472381591797
145,0,0,0.15878677368164062
146,0,0,0.1659393310546875
147,1,1,0.16164779663085938
148,0,0,0.16355514526367188
149,0,0,0.17189979553222656
150,0,0,0.1621246337890625
151,0,0,0.16355514526367188
152,0,0,0.17452239990234375
153,0,0,0.19288063049316406
154,0,0,0.16880035400390625
155,0,0,0.16260147094726562
156,0,0,0.1614093780517578
157,0,0,0.15854835510253906
158,0,0,0.15687942504882812
159,0,0,0.16188621520996094
160,0,0,0.156402587890625
161,0,0,0.15783309936523438
162,0,0,0.16236305236816406
163,0,0,0.16260147094726562
164,0,0,0.1628398895263672
165,0,0,0.16117095947265625
166,0,0,0.15974044799804688
167,0,0,0.15926361083984375
168,0,0,0.16427040100097656
169,0,0,0.1571178436279297
170,0,0,0.1633167266845703
171,0,0,0.16117095947265625
172,0,0,0.15997886657714844
173,0,0,0.18453598022460938
174,2,2,0.16570091247558594
175,0,0,0.16427040100097656
176,0,0,0.1628398895263672
177,0,0,0.15974044799804688
178,0,0,0.15783309936523438
179,0,0,0.1647472381591797
180,0,0,0.1633167266845703
181,0,0,0.15854835510253906
182,2,2,0.16164779663085938
183,0,0,0.164031982421875
184,0,0,0.15997886657714844
185,0,0,0.15878677368164062
186,0,0,0.1609325408935547
187,0,0,0.1609325408935547
188,0,0,0.16021728515625
189,0,0,0.1614093780517578
190,0,0,0.15997886657714844
191,1,1,0.16450881958007812
192,0,0,0.16260147094726562
193,0,0,0.18024444580078125
194,0,0,0.1628398895263672
195,0,0,0.16021728515625
196,0,0,0.1595020294189453
197,0,0,0.16045570373535156
198,0,0,0.15997886657714844
199,2,2,0.16069412231445312
200,0,0,0.1621246337890625
201,0,0,0.1571178436279297
202,0,0,0.15974044799804688
203,0,0,0.1614093780517578
204,0,0,0.1590251922607422
205,0,0,0.16355514526367188
206,0,0,0.16236305236816406
207,0,0,0.16307830810546875
208,2,2,0.1614093780517578
209,0,0,0.1609325408935547
210,1,1,0.16188621520996094
211,0,0,0.16355514526367188
212,0,0,0.1609325408935547
213,0,0,0.15783309936523438
214,0,0,0.1690387725830078
215,0,0,0.15926361083984375
216,2,2,0.15735626220703125
217,0,0,0.16069412231445312
218,0,0,0.16307830810546875
219,0,0,0.1595020294189453
220,0,0,0.1621246337890625
221,0,0,0.16188621520996094
222,2,2,0.1609325408935547
223,2,2,0.16021728515625
224,0,0,0.16236305236816406
225,1,0,0.16450881958007812
226,0,0,0.16307830810546875
227,0,0,0.1590251922607422
228,0,0,0.1628398895263672
229,0,0,0.15974044799804688
230,0,0,0.1666545867919922
231,0,0,0.15997886657714844
232,0,0,0.1614093780517578
233,0,0,0.1621246337890625
234,3,3,0.16379356384277344
235,0,0,0.1685619354248047
236,0,0,0.15926361083984375
237,0,0,0.1614093780517578
238,1,1,0.16689300537109375
239,0,0,0.1590251922607422
240,0,0,0.164031982421875
241,0,0,0.16021728515625
242,0,0,0.1728534698486328
243,0,0,0.1811981201171875
244,1,1,0.17380714416503906
245,0,0,0.16427040100097656
246,0,0,0.15807151794433594
247,2,2,0.16069412231445312
248,2,2,0.1609325408935547
249,0,0,0.16188621520996094
250,0,0,0.15807151794433594
251,0,0,0.17452239990234375
252,0,0,0.16641616821289062
253,2,2,0.2815723419189453
254,0,0,0.1518726348876953
255,0,0,0.14662742614746094
256,0,0,0.1518726348876953
257,0,0,0.15735626220703125
258,0,0,0.16260147094726562
259,0,0,0.15997886657714844
260,0,0,0.16236305236816406
261,2,2,0.16188621520996094
262,0,0,0.16117095947265625
263,0,0,0.1595020294189453
264,1,1,0.1628398895263672
265,0,0,0.15997886657714844
266,0,0,0.16307830810546875
267,0,0,0.16355514526367188
268,3,3,0.16355514526367188
269,2,2,0.1621246337890625
270,2,2,0.1628398895263672
271,0,0,0.16427040100097656
272,0,0,0.1621246337890625
273,0,0,0.21576881408691406
274,0,0,0.16236305236816406
275,2,2,0.15854835510253906
276,0,0,0.1633167266845703
277,0,0,0.1628398895263672
278,0,0,0.1575946807861328
279,0,0,0.16117095947265625
280,0,0,0.16379356384277344
281,0,0,0.16021728515625
282,0,0,0.16069412231445312
283,0,0,0.16188621520996094
284,0,0,0.1609325408935547
285,2,2,0.16164779663085938
286,2,2,0.16069412231445312
287,0,0,0.15974044799804688
288,0,0,0.16379356384277344
289,0,0,0.16307830810546875
290,1,1,0.1652240753173828
291,0,0,0.17499923706054688
292,0,0,0.179290771484375
293,0,0,0.1811981201171875
294,0,0,0.16260147094726562
295,0,0,0.15878677368164062
296,0,0,0.1678466796875
297,0,0,0.15783309936523438
298,0,0,0.1628398895263672
299,0,0,0.16021728515625
300,0,0,0.164031982421875
301,0,0,0.15807151794433594
302,3,3,0.1633167266845703
303,2,2,0.16117095947265625
304,0,0,0.16164779663085938
305,2,2,0.16307830810546875
306,0,0,0.16164779663085938
307,0,0,0.16188621520996094
308,0,0,0.16450881958007812
309,0,0,0.16164779663085938
310,0,0,0.1628398895263672
311,0,0,0.15974044799804688
312,0,0,0.17952919006347656
313,0,0,0.16736984252929688
314,0,0,0.16236305236816406
315,0,0,0.16164779663085938
316,0,0,0.1575946807861328
317,0,0,0.16570091247558594
318,2,2,0.16427040100097656
319,0,0,0.15807151794433594
320,0,0,0.1628398895263672
321,0,0,0.16689300537109375
322,0,0,0.1633167266845703
323,0,0,0.16117095947265625
324,0,0,0.156402587890625
325,0,0,0.15878677368164062
326,0,0,0.16117095947265625
327,0,0,0.1590251922607422
328,0,0,0.15974044799804688
329,0,0,0.156402587890625
330,0,0,0.16021728515625
331,0,0,0.15687942504882812
332,0,0,0.16164779663085938
333,0,0,0.16951560974121094
334,0,0,0.16498565673828125
335,0,0,0.15997886657714844
336,0,0,0.1633167266845703
337,0,0,0.15854835510253906
338,0,0,0.1666545867919922
339,0,0,0.1595020294189453
340,0,0,0.16379356384277344
341,0,0,0.16045570373535156
342,0,0,0.16498565673828125
343,0,0,0.15687942504882812
344,2,2,0.1633167266845703
345,0,0,0.156402587890625
346,0,0,0.16069412231445312
347,0,0,0.164031982421875
348,0,0,0.16021728515625
349,0,0,0.1614093780517578
350,0,0,0.1628398895263672
351,0,0,0.15783309936523438
352,0,0,0.16260147094726562
353,0,0,0.1628398895263672
354,0,0,0.164031982421875
355,0,0,0.16236305236816406
356,0,0,0.16450881958007812
357,0,0,0.16045570373535156
358,1,0,0.16546249389648438
359,2,2,0.16188621520996094
360,0,0,0.16045570373535156
361,0,0,0.15616416931152344
362,0,0,0.1571178436279297
363,0,0,0.15616416931152344
364,0,0,0.15974044799804688
365,0,0,0.16117095947265625
366,0,0,0.1614093780517578
367,0,0,0.16021728515625
368,1,1,0.1633167266845703
369,2,2,0.16045570373535156
370,0,0,0.1628398895263672
371,0,0,0.15878677368164062
372,0,0,0.16188621520996094
373,0,0,0.17952919006347656
374,2,2,0.16307830810546875
375,0,0,0.16379356384277344
376,1,1,0.164031982421875
377,0,0,0.16188621520996094
378,0,0,0.15735626220703125
379,0,0,0.1575946807861328
380,1,1,0.16307830810546875
381,0,0,0.15997886657714844
382,0,0,0.1575946807861328
383,2,2,0.16164779663085938
384,0,0,0.16045570373535156
385,0,0,0.1595020294189453
386,0,0,0.15735626220703125
387,0,0,0.1609325408935547
388,0,0,0.16427040100097656
389,0,0,0.1621246337890625
390,0,0,0.16117095947265625
391,0,0,0.16641616821289062
392,0,0,0.16355514526367188
393,0,0,0.17833709716796875
394,0,0,0.16641616821289062
395,2,2,0.1633167266845703
396,2,2,0.15926361083984375
397,0,0,0.16188621520996094
398,0,0,0.16117095947265625
399,0,0,0.15926361083984375
400,2,2,0.16069412231445312
401,0,0,0.1621246337890625
402,0,0,0.16069412231445312
403,0,0,0.15783309936523438
404,2,2,0.1633167266845703
405,0,0,0.17261505126953125
406,0,0,0.16641616821289062
407,1,1,0.16236305236816406
408,0,0,0.16117095947265625
409,0,0,0.16164779663085938
410,0,0,0.15783309936523438
411,0,1,0.16236305236816406
412,0,0,0.15783309936523438
413,2,2,0.1850128173828125
414,0,0,0.16307830810546875
415,2,2,0.16021728515625
416,0,0,0.15783309936523438
417,0,0,0.1647472381591797
418,0,0,0.15926361083984375
419,0,0,0.1609325408935547
420,0,0,0.15997886657714844
421,0,0,0.1595020294189453
422,0,0,0.15783309936523438
423,0,0,0.16069412231445312
424,0,0,0.16236305236816406
425,1,1,0.1583099365234375
426,0,0,0.1614093780517578
427,0,0,0.1590251922607422
428,0,0,0.15735626220703125
429,0,0,0.1595020294189453
430,0,0,0.15997886657714844
431,0,0,0.1583099365234375
432,0,0,0.16117095947265625
433,0,0,0.20551681518554688
434,0,0,0.1957416534423828
435,0,0,0.20122528076171875
436,0,0,0.19812583923339844
437,0,0,0.20003318786621094
438,0,0,0.1957416534423828
439,2,2,0.20837783813476562
440,0,0,0.19931793212890625
441,0,0,0.1919269561767578
442,0,0,0.1785755157470703
443,0,0,0.18405914306640625
444,0,0,0.18668174743652344
445,2,2,0.17452239990234375
446,0,0,0.16236305236816406
447,0,0,0.16188621520996094
448,0,0,0.16021728515625
449,0,0,0.1583099365234375
450,0,0,0.20003318786621094
451,0,0,0.16689300537109375
452,0,0,0.1633167266845703
453,1,1,0.1595020294189453
454,0,0,0.1609325408935547
455,0,0,0.15878677368164062
456,0,0,0.16021728515625
457,0,0,0.15926361083984375
458,2,2,0.16736984252929688
459,0,0,0.179290771484375
460,0,0,0.18143653869628906
461,0,0,0.1621246337890625
462,0,0,0.16260147094726562
463,0,0,0.1633167266845703
464,0,0,0.16188621520996094
465,0,0,0.15974044799804688
466,0,0,0.164031982421875
467,0,0,0.1556873321533203
468,0,0,0.16880035400390625
469,0,0,0.1971721649169922
470,0,0,0.17547607421875
471,0,0,0.18715858459472656
472,0,0,0.1881122589111328
473,0,0,0.17952919006347656
474,0,0,0.16498565673828125
475,0,0,0.15997886657714844
476,0,0,0.16427040100097656
477,0,0,0.16355514526367188
478,0,0,0.16450881958007812
479,0,0,0.1628398895263672
480,0,0,0.16832351684570312
481,0,0,0.1590251922607422
482,0,0,0.16045570373535156
483,0,0,0.15974044799804688
484,0,0,0.16379356384277344
485,2,2,0.16307830810546875
486,0,0,0.16808509826660156
487,0,0,0.1685619354248047
488,0,0,0.19431114196777344
489,0,0,0.16760826110839844
490,0,0,0.1590251922607422
491,0,0,0.15878677368164062
492,0,0,0.15687942504882812
493,0,0,0.16069412231445312
494,0,0,0.15974044799804688
495,0,0,0.1590251922607422
496,0,0,0.1595020294189453
497,0,0,0.15997886657714844
498,0,0,0.1583099365234375
499,0,0,0.15974044799804688
500,0,0,0.1652240753173828
501,2,2,0.1595020294189453
502,0,0,0.16021728515625
503,0,0,0.164031982421875
504,0,0,0.1621246337890625
505,0,0,0.1614093780517578
506,0,0,0.1633167266845703
507,0,0,0.16045570373535156
508,0,0,0.1976490020751953
509,0,0,0.1678466796875
510,0,0,0.16045570373535156
511,0,0,0.16117095947265625
512,0,0,0.16307830810546875
513,0,0,0.1590251922607422
514,0,0,0.1609325408935547
515,0,0,0.16164779663085938
516,0,0,0.1628398895263672
517,0,0,0.17547607421875
518,2,2,0.16379356384277344
519,0,0,0.1609325408935547
520,0,0,0.1609325408935547
521,0,0,0.1583099365234375
522,0,0,0.15807151794433594
523,0,2,0.16069412231445312
524,0,0,0.1575946807861328
525,0,0,0.15687942504882812
526,0,0,0.164031982421875
527,0,0,0.15997886657714844
528,0,0,0.18072128295898438
529,0,0,0.1647472381591797
530,0,0,0.16164779663085938
531,0,0,0.16164779663085938
532,0,0,0.16069412231445312
533,0,1,0.16450881958007812
534,2,0,0.16117095947265625
535,0,0,0.15783309936523438
536,0,0,0.1621246337890625
537,0,0,0.16379356384277344
538,0,0,0.1614093780517578
539,0,0,0.15854835510253906
540,2,2,0.16069412231445312
541,0,0,0.16069412231445312
542,0,0,0.1621246337890625
543,2,2,0.15997886657714844
544,0,0,0.16117095947265625
545,0,0,0.15687942504882812
546,0,0,0.16427040100097656
547,0,0,0.16379356384277344
548,0,0,0.1862049102783203
549,0,0,0.1614093780517578
550,0,0,0.16355514526367188
551,1,1,0.16117095947265625
552,0,0,0.15687942504882812
553,0,0,0.1575946807861328
554,0,0,0.16307830810546875
555,0,0,0.1690387725830078
556,0,0,0.1571178436279297
557,0,0,0.15974044799804688
558,0,0,0.15735626220703125
559,0,0,0.15735626220703125
560,0,0,0.16117095947265625
561,0,0,0.1595020294189453
562,0,0,0.16307830810546875
563,0,0,0.16236305236816406
564,0,0,0.1647472381591797
565,0,0,0.16069412231445312
566,0,0,0.15878677368164062
567,0,0,0.1628398895263672
568,0,0,0.1590251922607422
569,0,0,0.1614093780517578
570,0,0,0.16117095947265625
571,0,0,0.16379356384277344
572,0,0,0.16021728515625
573,0,0,0.15687942504882812
574,0,0,0.1583099365234375
575,0,0,0.15854835510253906
576,0,0,0.1652240753173828
577,0,0,0.16188621520996094
578,0,0,0.1633167266845703
579,0,0,0.1583099365234375
580,2,2,0.1633167266845703
581,0,0,0.16570091247558594
582,0,0,0.16307830810546875
583,0,0,0.16379356384277344
584,2,2,0.16307830810546875
585,0,0,0.1628398895263672
586,2,2,0.164031982421875
587,0,0,0.15878677368164062
588,2,2,0.16164779663085938
589,0,0,0.1621246337890625
590,0,0,0.16069412231445312
591,0,0,0.1583099365234375
592,0,0,0.1595020294189453
593,0,0,0.1595020294189453
594,0,0,0.1633167266845703
595,2,2,0.1609325408935547
596,0,0,0.16498565673828125
597,0,0,0.16236305236816406
598,0,0,0.15997886657714844
599,0,0,0.16236305236816406
600,0,0,0.1614093780517578
601,0,0,0.15664100646972656
602,0,0,0.15735626220703125
603,0,0,0.15807151794433594
604,2,2,0.1614093780517578
605,0,0,0.15997886657714844
606,0,0,0.15735626220703125
607,0,0,0.16498565673828125
608,0,0,0.1614093780517578
609,0,0,0.18215179443359375
610,0,0,0.16355514526367188
611,0,0,0.1575946807861328
612,0,0,0.1647472381591797
613,0,0,0.1609325408935547
614,0,0,0.16021728515625
615,0,0,0.1628398895263672
616,0,0,0.15974044799804688
617,0,0,0.156402587890625
618,0,0,0.1614093780517578
619,0,0,0.15807151794433594
620,0,0,0.16188621520996094
621,0,0,0.16450881958007812
622,0,0,0.16355514526367188
623,0,0,0.1633167266845703
624,0,0,0.1621246337890625
625,0,0,0.15783309936523438
626,0,0,0.1575946807861328
627,0,0,0.15878677368164062
628,0,0,0.15997886657714844
629,0,0,0.18739700317382812
630,1,0,0.16260147094726562
631,1,0,0.16760826110839844
632,0,0,0.15807151794433594
633,0,0,0.1571178436279297
634,0,0,0.1590251922607422
635,0,0,0.16260147094726562
636,0,0,0.15926361083984375
637,0,0,0.16570091247558594
638,0,0,0.16188621520996094
639,0,0,0.15854835510253906
640,0,0,0.15783309936523438
641,0,0,0.15926361083984375
642,0,0,0.16379356384277344
643,0,0,0.16307830810546875
644,0,0,0.1647472381591797
645,0,0,0.16498565673828125
646,0,0,0.1575946807861328
647,0,0,0.16355514526367188
648,0,0,0.1621246337890625
649,0,0,0.19097328186035156
650,0,0,0.1709461212158203
651,0,0,0.16307830810546875
652,0,0,0.16736984252929688
653,0,0,0.1621246337890625
654,0,0,0.16045570373535156
655,0,0,0.1621246337890625
656,0,0,0.16260147094726562
657,0,0,0.15807151794433594
658,0,0,0.15807151794433594
659,0,0,0.1552104949951172
660,0,0,0.1609325408935547
661,0,0,0.16427040100097656
662,0,0,0.16117095947265625
663,0,0,0.1583099365234375
664,0,0,0.16450881958007812
665,0,0,0.16260147094726562
666,0,0,0.15997886657714844
667,0,0,0.16164779663085938
668,0,0,0.15926361083984375
669,0,0,0.18477439880371094
670,0,0,0.1659393310546875
671,0,0,0.15783309936523438
672,0,0,0.15783309936523438
673,0,0,0.1628398895263672
674,1,0,0.15974044799804688
675,0,0,0.15926361083984375
676,0,0,0.15878677368164062
677,0,0,0.16307830810546875
678,0,0,0.1621246337890625
679,0,0,0.15878677368164062
680,0,0,0.15783309936523438
681,0,0,0.15878677368164062
682,0,0,0.1633167266845703
683,0,0,0.1621246337890625
684,0,0,0.15735626220703125
685,0,0,0.16307830810546875
686,0,0,0.16117095947265625
687,0,0,0.16355514526367188
688,0,0,0.16117095947265625
689,0,0,0.1819133758544922
690,0,0,0.16760826110839844
691,0,0,0.16021728515625
692,0,0,0.15974044799804688
693,0,0,0.15974044799804688
694,0,0,0.16236305236816406
695,0,0,0.16188621520996094
696,0,0,0.16188621520996094
697,0,0,0.1583099365234375
698,2,2,0.1609325408935547
699,0,0,0.16045570373535156
700,2,2,0.16260147094726562
701,0,0,0.15878677368164062
702,0,0,0.15878677368164062
703,0,0,0.1571178436279297
704,0,0,0.1583099365234375
705,0,0,0.15854835510253906
706,2,2,0.16260147094726562
707,0,0,0.16450881958007812
708,0,0,0.1633167266845703
709,0,0,0.1766681671142578
710,0,0,0.1678466796875
711,0,0,0.15854835510253906
712,0,0,0.15783309936523438
713,0,0,0.15687942504882812
714,0,0,0.15926361083984375
715,0,0,0.16355514526367188
716,0,0,0.1571178436279297
717,0,0,0.16021728515625
718,0,0,0.15783309936523438
719,0,0,0.1633167266845703
720,0,0,0.16236305236816406
721,0,0,0.1590251922607422
722,3,2,0.16355514526367188
723,0,0,0.1571178436279297
724,0,0,0.16164779663085938
725,2,2,0.1609325408935547
726,0,0,0.16117095947265625
727,0,0,0.1621246337890625
728,0,0,0.15854835510253906
729,0,0,0.16188621520996094
730,0,0,0.16427040100097656
731,0,0,0.1666545867919922
732,0,0,0.1609325408935547
733,1,0,0.15878677368164062
734,0,0,0.16117095947265625
735,0,0,0.16498565673828125
736,0,0,0.16450881958007812
737,0,0,0.1678466796875
738,0,0,0.1583099365234375
739,0,0,0.15687942504882812
740,0,0,0.15807151794433594
741,0,0,0.15735626220703125
742,0,0,0.1685619354248047
743,0,0,0.1595020294189453
744,0,0,0.16355514526367188
745,0,0,0.16188621520996094
746,2,2,0.16188621520996094
747,3,3,0.16164779663085938
748,0,0,0.1621246337890625
749,0,0,0.16498565673828125
750,0,0,0.16736984252929688
751,0,0,0.16188621520996094
752,0,0,0.15878677368164062
753,0,0,0.16236305236816406
754,0,0,0.15997886657714844
755,0,0,0.1609325408935547
756,0,0,0.15878677368164062
757,0,0,0.15926361083984375
758,0,0,0.1659393310546875
759,0,0,0.16450881958007812
760,0,0,0.1659393310546875
761,0,0,0.156402587890625
762,0,1,0.16450881958007812
763,1,1,0.16164779663085938
764,0,0,0.1590251922607422
765,2,2,0.16164779663085938
766,0,0,0.15997886657714844
767,0,0,0.15974044799804688
768,2,2,0.1633167266845703
769,0,0,0.16117095947265625
770,0,0,0.17714500427246094
771,0,0,0.16355514526367188
772,0,0,0.16260147094726562
773,0,0,0.15974044799804688
774,0,0,0.1614093780517578
775,0,0,0.1609325408935547
776,0,0,0.16164779663085938
777,0,0,0.16117095947265625
778,0,0,0.16546249389648438
779,0,0,0.16069412231445312
780,0,0,0.16117095947265625
781,0,0,0.1621246337890625
782,0,0,0.17595291137695312
783,0,0,0.18286705017089844
784,2,2,0.17261505126953125
785,0,0,0.1697540283203125
786,0,0,0.16117095947265625
787,0,0,0.16307830810546875
788,0,0,0.1583099365234375
789,0,0,0.18668174743652344
790,0,0,0.16546249389648438
791,0,0,0.1697540283203125
792,0,0,0.1647472381591797
793,0,0,0.15807151794433594
794,0,0,0.16355514526367188
795,0,0,0.16069412231445312
796,0,0,0.179290771484375
797,0,0,0.20742416381835938
798,0,0,0.19025802612304688
799,0,0,0.2009868621826172
800,0,0,0.19121170043945312
801,0,0,0.1881122589111328
802,0,0,0.19502639770507812
803,0,0,0.18739700317382812
804,0,0,0.1976490020751953
805,0,0,0.2014636993408203
806,0,0,0.22530555725097656
807,0,0,0.18668174743652344
808,0,0,0.1838207244873047
809,0,0,0.179290771484375
810,0,0,0.17595291137695312
811,0,0,0.1647472381591797
812,0,0,0.16617774963378906
813,0,0,0.1652240753173828
814,0,0,0.15926361083984375
815,0,0,0.16689300537109375
816,0,0,0.16355514526367188
817,2,2,0.16188621520996094
818,2,2,0.16188621520996094
819,2,2,0.16379356384277344
820,0,0,0.16188621520996094
821,0,0,0.15997886657714844
822,0,0,0.1609325408935547
823,0,0,0.16450881958007812
824,0,0,0.1609325408935547
825,0,0,0.19097328186035156
826,0,0,0.1633167266845703
827,0,0,0.1785755157470703
828,2,2,0.18024444580078125
829,2,2,0.18453598022460938
830,0,0,0.18668174743652344
831,0,0,0.18477439880371094
832,0,0,0.19168853759765625
833,0,0,0.19693374633789062
834,0,0,0.18930435180664062
835,0,0,0.17070770263671875
836,0,0,0.16498565673828125
837,0,0,0.16379356384277344
838,0,0,0.15783309936523438
839,0,0,0.16546249389648438
840,0,0,0.15854835510253906
841,0,0,0.1633167266845703
842,0,0,0.15974044799804688
843,2,2,0.1647472381591797
844,0,0,0.17404556274414062
845,0,0,0.16307830810546875
846,0,0,0.16760826110839844
847,0,0,0.1628398895263672
848,0,0,0.15974044799804688
849,0,0,0.16427040100097656
850,0,0,0.16117095947265625
851,0,0,0.17118453979492188
852,2,2,0.1728534698486328
853,0,0,0.15878677368164062
854,0,0,0.16570091247558594
855,0,0,0.1633167266845703
856,0,0,0.1595020294189453
857,0,0,0.16427040100097656
858,0,0,0.15687942504882812
859,0,0,0.15664100646972656
860,0,0,0.16570091247558594
861,0,0,0.1583099365234375
862,0,0,0.1575946807861328
863,0,0,0.18596649169921875
864,0,0,0.17452239990234375
865,0,0,0.1742839813232422
866,0,0,0.16617774963378906
867,0,0,0.16164779663085938
868,0,0,0.16021728515625
869,0,0,0.1614093780517578
870,0,0,0.1595020294189453
871,0,0,0.1633167266845703
872,0,0,0.16021728515625
873,0,0,0.16117095947265625
874,0,0,0.16164779663085938
875,0,0,0.16498565673828125
876,0,0,0.16188621520996094
877,1,1,0.16546249389648438
878,0,0,0.15997886657714844
879,0,0,0.1621246337890625
880,3,2,0.16450881958007812
881,0,0,0.16498565673828125
882,2,2,0.1614093780517578
883,2,1,0.28443336486816406
884,0,0,0.14495849609375
885,0,0,0.14162063598632812
886,0,0,0.1556873321533203
887,0,0,0.16188621520996094
888,0,0,0.16188621520996094
889,0,0,0.1633167266845703
890,0,0,0.15854835510253906
891,0,0,0.16617774963378906
892,0,0,0.15974044799804688
893,0,0,0.16355514526367188
894,0,0,0.16689300537109375
895,0,0,0.16808509826660156
896,0,0,0.15807151794433594
897,0,0,0.15878677368164062
898,2,2,0.16355514526367188
899,0,0,0.15807151794433594
900,0,0,0.16260147094726562
901,0,0,0.16307830810546875
902,0,0,0.15783309936523438
903,0,0,0.1723766326904297
904,0,0,0.1621246337890625
905,0,0,0.1633167266845703
906,0,0,0.16260147094726562
907,0,0,0.18739700317382812
908,0,0,0.19073486328125
909,2,2,0.20360946655273438
910,0,0,0.19240379333496094
911,0,0,0.1938343048095703
912,0,0,0.20241737365722656
913,0,0,0.2110004425048828
914,0,0,0.21505355834960938
915,0,0,0.2105236053466797
916,2,2,0.19979476928710938
917,0,0,0.20551681518554688
918,0,0,0.19240379333496094
919,0,0,0.1900196075439453
920,2,2,0.18024444580078125
921,0,0,0.186920166015625
922,0,0,0.18334388732910156
923,0,0,0.19502639770507812
924,1,0,0.2079010009765625
925,2,2,0.21123886108398438
926,0,0,0.20647048950195312
927,0,0,0.19550323486328125
928,0,0,0.1971721649169922
929,0,0,0.1990795135498047
930,0,0,0.19669532775878906
931,0,0,0.1976490020751953
932,0,0,0.20074844360351562
933,0,0,0.2319812774658203
934,0,0,0.18405914306640625
935,2,2,0.1671314239501953
936,0,0,0.17976760864257812
937,0,0,0.17595291137695312
938,0,0,0.1850128173828125
939,0,0,0.17118453979492188
940,0,0,0.1621246337890625
941,0,0,0.15974044799804688
942,0,0,0.15735626220703125
943,0,0,0.1575946807861328
944,0,0,0.15783309936523438
945,0,0,0.16236305236816406
946,0,0,0.16236305236816406
947,0,0,0.16450881958007812
948,0,0,0.15854835510253906
949,0,0,0.16188621520996094
950,0,0,0.16450881958007812
951,0,0,0.16188621520996094
952,0,0,0.19812583923339844
953,0,0,0.16927719116210938
954,2,2,0.1628398895263672
955,0,0,0.16498565673828125
956,0,0,0.16546249389648438
957,0,0,0.16307830810546875
958,0,0,0.15783309936523438
959,0,0,0.164031982421875
960,0,0,0.16069412231445312
961,0,0,0.17642974853515625
962,0,0,0.1800060272216797
963,0,0,0.1766681671142578
964,0,0,0.16307830810546875
965,2,2,0.17309188842773438
966,0,0,0.1690387725830078
967,0,0,0.179290771484375
968,0,0,0.15997886657714844
969,2,2,0.16188621520996094
970,0,0,0.16546249389648438
971,0,0,0.19884109497070312
972,0,0,0.1723766326904297
973,0,0,0.16617774963378906
974,0,0,0.1590251922607422
975,0,0,0.16498565673828125
976,0,0,0.1595020294189453
977,0,0,0.1709461212158203
978,0,0,0.19073486328125
979,0,0,0.1811981201171875
980,0,0,0.1690387725830078
981,0,0,0.16021728515625
982,1,1,0.1628398895263672
983,0,0,0.16260147094726562
984,2,2,0.1647472381591797
985,0,0,0.16307830810546875
986,0,0,0.1633167266845703
987,0,0,0.16641616821289062
988,0,0,0.16498565673828125
989,0,0,0.1659393310546875
990,0,0,0.20313262939453125
991,0,0,0.1761913299560547
992,0,0,0.16999244689941406
993,0,0,0.1647472381591797
994,0,0,0.16927719116210938
995,0,0,0.17333030700683594
996,0,0,0.16307830810546875
997,2,2,0.15974044799804688
998,2,2,0.16164779663085938
999,0,0,0.16450881958007812
1000,3,3,0.1659393310546875
1001,0,0,0.16021728515625
1002,0,0,0.15783309936523438
1003,0,0,0.16164779663085938
1004,0,0,0.15735626220703125
1005,0,0,0.1633167266845703
1006,1,0,0.17881393432617188
1007,0,0,0.17762184143066406
1008,2,2,0.1723766326904297
1009,0,0,0.20694732666015625
1010,0,0,0.19598007202148438
1011,0,0,0.17547607421875
1012,0,0,0.17547607421875
1013,0,0,0.16236305236816406
1014,0,0,0.16808509826660156
1015,0,0,0.16021728515625
1016,0,0,0.1666545867919922
1017,0,0,0.15974044799804688
1018,0,0,0.1590251922607422
1019,0,0,0.1595020294189453
1020,0,0,0.16450881958007812
1021,0,0,0.15926361083984375
1022,0,0,0.1575946807861328
1023,2,2,0.1633167266845703
1024,0,0,0.1800060272216797
1025,0,0,0.16736984252929688
1026,0,0,0.1633167266845703
1027,0,0,0.1647472381591797
1028,0,0,0.1876354217529297
1029,2,2,0.1671314239501953
1030,0,0,0.15926361083984375
1031,0,0,0.16427040100097656
1032,0,0,0.16045570373535156
1033,0,0,0.15854835510253906
1034,0,0,0.1647472381591797
1035,0,0,0.1659393310546875
1036,0,0,0.16117095947265625
1037,0,0,0.1704692840576172
1038,0,0,0.16307830810546875
1039,0,0,0.15854835510253906
1040,0,0,0.1614093780517578
1041,0,0,0.16260147094726562
1042,1,0,0.1633167266845703
1043,0,0,0.1628398895263672
1044,0,0,0.16641616821289062
1045,0,0,0.1614093780517578
1046,1,1,0.1709461212158203
1047,0,0,0.18286705017089844
1048,0,0,0.2143383026123047
1049,0,0,0.18072128295898438
1050,0,0,0.16021728515625
1051,0,0,0.1647472381591797
1052,0,0,0.16188621520996094
1053,0,0,0.1614093780517578
1054,0,0,0.16450881958007812
1055,1,0,0.16498565673828125
1056,0,0,0.16236305236816406
1057,0,0,0.1628398895263672
1058,0,0,0.16355514526367188
1059,0,0,0.16307830810546875
1060,0,0,0.1697540283203125
1061,0,0,0.18453598022460938
1062,0,0,0.1773834228515625
1063,2,2,0.1685619354248047
1064,0,0,0.1571178436279297
1065,3,3,0.16355514526367188
1066,0,0,0.17690658569335938
1067,0,0,0.19598007202148438
1068,0,0,0.1671314239501953
1069,0,0,0.164031982421875
1070,0,0,0.16570091247558594
1071,0,0,0.1709461212158203
1072,0,0,0.15997886657714844
1073,0,0,0.1614093780517578
1074,0,0,0.16736984252929688
1075,0,0,0.1652240753173828
1076,0,0,0.16236305236816406
1077,0,0,0.16450881958007812
1078,0,0,0.1704692840576172
1079,0,0,0.16641616821289062
1080,0,0,0.15974044799804688
1081,0,0,0.16164779663085938
1082,0,0,0.15878677368164062
1083,0,0,0.1575946807861328
1084,0,0,0.1614093780517578
1085,0,0,0.15997886657714844
1086,0,0,0.16570091247558594
1087,0,0,0.16689300537109375
1088,0,0,0.1659393310546875
1089,1,1,0.1652240753173828
1090,0,0,0.16379356384277344
1091,0,0,0.16260147094726562
1092,0,0,0.16236305236816406
1093,0,0,0.1571178436279297
1094,0,0,0.16546249389648438
1095,0,0,0.1590251922607422
1096,0,0,0.15926361083984375
1097,0,0,0.16069412231445312
1098,2,2,0.16307830810546875
1099,0,0,0.16379356384277344
1100,0,0,0.16236305236816406
1101,0,0,0.1614093780517578
1102,0,0,0.16880035400390625
1103,0,0,0.1857280731201172
1104,3,3,0.18739700317382812
1105,0,0,0.1728534698486328
1106,1,1,0.19669532775878906
1107,0,0,0.16427040100097656
1108,2,2,0.1628398895263672
1109,0,0,0.1652240753173828
1110,0,0,0.16999244689941406
1111,0,0,0.16617774963378906
1112,0,0,0.16355514526367188
1113,1,1,0.16355514526367188
1114,0,0,0.16379356384277344
1115,0,0,0.1666545867919922
1116,0,0,0.17905235290527344
1117,2,2,0.18453598022460938
1118,0,0,0.16117095947265625
1119,0,0,0.1575946807861328
1120,0,0,0.15807151794433594
1121,0,0,0.16427040100097656
1122,0,0,0.1609325408935547
1123,0,0,0.1666545867919922
1124,0,0,0.1671314239501953
1125,0,0,0.19741058349609375
1126,0,0,0.16760826110839844
1127,2,2,0.1647472381591797
1128,0,0,0.1595020294189453
1129,0,0,0.1609325408935547
1130,0,0,0.16641616821289062
1131,0,0,0.1723766326904297
1132,0,0,0.1785755157470703
1133,0,0,0.1621246337890625
1134,0,0,0.16260147094726562
1135,0,0,0.1850128173828125
1136,0,0,0.1659393310546875
1137,0,0,0.1628398895263672
1138,0,0,0.15878677368164062
1139,0,0,0.16045570373535156
1140,0,0,0.16260147094726562
1141,1,1,0.16546249389648438
1142,0,0,0.171661376953125
1143,0,0,0.16427040100097656
1144,0,0,0.18715858459472656
1145,2,2,0.1842975616455078
1146,0,0,0.17380714416503906
1147,0,0,0.18405914306640625
1148,0,0,0.18358230590820312
1149,0,0,0.17333030700683594
1150,0,0,0.16570091247558594
1151,0,0,0.1761913299560547
1152,0,0,0.16736984252929688
1153,0,0,0.16260147094726562
1154,0,0,0.16379356384277344
1155,0,0,0.16236305236816406
1156,0,0,0.16307830810546875
1157,0,0,0.16188621520996094
1158,2,2,0.16236305236816406
1159,0,0,0.16498565673828125
1160,2,2,0.1595020294189453
1161,0,0,0.15783309936523438
1162,1,1,0.1697540283203125
1163,0,0,0.20956993103027344
1164,0,0,0.186920166015625
1165,0,0,0.16236305236816406
1166,0,0,0.16164779663085938
1167,0,0,0.1628398895263672
1168,0,0,0.16832351684570312
1169,0,0,0.15974044799804688
1170,2,2,0.16069412231445312
1171,2,2,0.1575946807861328
1172,0,0,0.1633167266845703
1173,0,0,0.15974044799804688
1174,0,0,0.15854835510253906
1175,0,0,0.1571178436279297
1176,0,0,0.1621246337890625
1177,0,0,0.15854835510253906
1178,0,0,0.16427040100097656
1179,0,0,0.15807151794433594
1180,0,0,0.1614093780517578
1181,0,0,0.1633167266845703
1182,0,0,0.16164779663085938
1183,0,0,0.1938343048095703
1184,0,0,0.16188621520996094
1185,0,0,0.1609325408935547
1186,2,2,0.1685619354248047
1187,0,0,0.16427040100097656
1188,0,0,0.1628398895263672
1189,0,0,0.1614093780517578
1190,0,0,0.1628398895263672
1191,0,0,0.1666545867919922
1192,0,0,0.17499923706054688
1193,0,0,0.16546249389648438
1194,0,0,0.16021728515625
1195,0,0,0.1628398895263672
1196,0,0,0.1647472381591797
1197,0,0,0.16260147094726562
1198,0,0,0.15783309936523438
1199,0,0,0.164031982421875
1200,2,2,0.1628398895263672
1201,0,0,0.164031982421875
1202,2,2,0.1621246337890625
1203,0,0,0.2846717834472656
1204,0,0,0.17261505126953125
1205,0,0,0.16379356384277344
1206,0,0,0.16641616821289062
1207,1,0,0.1595020294189453
1208,0,0,0.1590251922607422
1209,2,2,0.1590251922607422
1210,1,1,0.16355514526367188
1211,0,0,0.16951560974121094
1212,0,0,0.17070770263671875
1213,0,0,0.16570091247558594
1214,0,0,0.17261505126953125
1215,0,0,0.1628398895263672
1216,0,0,0.17142295837402344
1217,0,0,0.18906593322753906
1218,2,2,0.18358230590820312
1219,0,0,0.179290771484375
1220,0,0,0.17714500427246094
1221,0,0,0.2117156982421875
1222,0,0,0.18596649169921875
1223,0,0,0.17786026000976562
1224,0,0,0.18143653869628906
1225,0,0,0.17786026000976562
1226,0,0,0.1785755157470703
1227,2,2,0.17786026000976562
1228,0,0,0.17547607421875
1229,0,0,0.18477439880371094
1230,0,0,0.1857280731201172
1231,2,2,0.17595291137695312
1232,0,0,0.1785755157470703
1233,0,0,0.1761913299560547
1234,0,0,0.17833709716796875
1235,0,0,0.17189979553222656
1236,0,0,0.1823902130126953
1237,0,0,0.17595291137695312
1238,0,0,0.22101402282714844
1239,0,0,0.18739700317382812
1240,0,0,0.17404556274414062
1241,0,0,0.1842975616455078
1242,0,0,0.17786026000976562
1243,0,0,0.179290771484375
1244,0,0,0.179290771484375
1245,3,0,0.1735687255859375
1246,0,0,0.17786026000976562
1247,0,0,0.1773834228515625
1248,0,0,0.17499923706054688
1249,0,0,0.17690658569335938
1250,0,0,0.17786026000976562
1251,1,1,0.18024444580078125
1252,0,0,0.18286705017089844
1253,1,0,0.17642974853515625
1254,0,0,0.18668174743652344
1255,0,0,0.21696090698242188
1256,0,0,0.18978118896484375
1257,0,0,0.17309188842773438
1258,0,0,0.17833709716796875
1259,0,0,0.1811981201171875
1260,0,0,0.18644332885742188
1261,0,0,0.1888275146484375
1262,0,0,0.18787384033203125
1263,0,0,0.2014636993408203
1264,0,0,0.20742416381835938
1265,0,0,0.19598007202148438
1266,0,0,0.19407272338867188
1267,1,1,0.18525123596191406
1268,0,0,0.19240379333496094
1269,0,0,0.18072128295898438
1270,0,0,0.186920166015625
1271,0,0,0.2028942108154297
1272,0,0,0.21219253540039062
1273,0,0,0.213623046875
1274,0,0,0.20766258239746094
1275,2,2,0.1900196075439453
1276,0,0,0.1900196075439453
1277,0,0,0.1850128173828125
1278,0,0,0.1938343048095703
1279,0,0,0.21004676818847656
1280,0,0,0.2129077911376953
1281,0,0,0.20122528076171875
1282,0,0,0.20837783813476562
1283,0,0,0.20360946655273438
1284,0,0,0.1983642578125
1285,0,0,0.19741058349609375
1286,0,0,0.2453327178955078
1287,0,0,0.2148151397705078
1288,2,2,0.20456314086914062
1289,0,0,0.20051002502441406
1290,0,0,0.19598007202148438
1291,0,0,0.18787384033203125
1292,0,0,0.1742839813232422
1293,0,0,0.1800060272216797
1294,0,0,0.17881393432617188
1295,0,0,0.17380714416503906
1296,0,0,0.1709461212158203
1297,0,0,0.17309188842773438
1298,0,0,0.1785755157470703
1299,0,0,0.1709461212158203
1300,0,0,0.1666545867919922
1301,0,0,0.1671314239501953
1302,0,0,0.17571449279785156
1303,0,0,0.202178955078125
1304,1,1,0.17523765563964844
1305,0,0,0.16999244689941406
1306,0,0,0.16927719116210938
1307,0,0,0.17070770263671875
1308,0,0,0.17881393432617188
1309,0,0,0.2224445343017578
1310,0,0,0.20241737365722656
1311,0,0,0.1838207244873047
1312,0,0,0.18596649169921875
1313,0,0,0.19979476928710938
1314,0,0,0.21219253540039062
1315,0,0,0.2009868621826172
1316,0,0,0.20194053649902344
1317,0,0,0.1971721649169922
1318,0,0,0.2224445343017578
1319,0,0,0.209808349609375
1320,0,0,0.20384788513183594
1321,0,0,0.2014636993408203
1322,0,0,0.20003318786621094
1323,2,2,0.2086162567138672
1324,0,0,0.21529197692871094
1325,0,0,0.2086162567138672
1326,0,0,0.2117156982421875
1327,0,0,0.1995563507080078
1328,0,0,0.1995563507080078
1329,0,0,0.20122528076171875
1330,0,0,0.1900196075439453
1331,2,2,0.1926422119140625
1332,0,0,0.17118453979492188
1333,0,0,0.22411346435546875
1334,0,0,0.2071857452392578
1335,0,0,0.19407272338867188
1336,0,0,0.18787384033203125
1337,0,0,0.17762184143066406
1338,0,0,0.16999244689941406
1339,0,0,0.16736984252929688
1340,0,0,0.1709461212158203
1341,0,0,0.1735687255859375
1342,0,0,0.1709461212158203
1343,0,0,0.1723766326904297
1344,0,0,0.1747608184814453
1345,0,0,0.18167495727539062
1346,0,0,0.1842975616455078
1347,0,0,0.18072128295898438
1348,0,0,0.18262863159179688
1349,0,0,0.18405914306640625
1350,0,0,0.22602081298828125
1351,0,0,0.19121170043945312
1352,0,0,0.1838207244873047
1353,0,0,0.1800060272216797
1354,0,0,0.18143653869628906
1355,0,0,0.1850128173828125
1356,0,0,0.17333030700683594
1357,0,0,0.17523765563964844
1358,0,0,0.1728534698486328
1359,0,0,0.1773834228515625
1360,0,0,0.17404556274414062
1361,1,1,0.17762184143066406
1362,0,0,0.17952919006347656
1363,0,0,0.1842975616455078
1364,0,0,0.18024444580078125
1365,0,0,0.18477439880371094
1366,0,0,0.1773834228515625
1367,0,0,0.22363662719726562
1368,2,2,0.1964569091796875
1369,0,0,0.19168853759765625
1370,0,0,0.18453598022460938
1371,0,0,0.18644332885742188
1372,0,0,0.18548965454101562
1373,0,0,0.18167495727539062
1374,0,0,0.17762184143066406
1375,0,0,0.16880035400390625
1376,0,0,0.1747608184814453
1377,0,0,0.18024444580078125
1378,0,0,0.18215179443359375
1379,0,0,0.18143653869628906
1380,0,0,0.19240379333496094
1381,0,0,0.186920166015625
1382,2,2,0.18978118896484375
1383,0,0,0.19216537475585938
1384,0,0,0.28634071350097656
1385,0,0,0.20551681518554688
1386,0,0,0.20575523376464844
1387,0,0,0.19812583923339844
1388,0,0,0.20313262939453125
1389,0,0,0.19621849060058594
1390,0,0,0.18906593322753906
1391,0,0,0.4363059997558594
1392,0,0,0.2148151397705078
1393,0,0,0.19741058349609375
1394,0,0,0.20122528076171875
1395,0,0,0.19788742065429688
1396,0,0,0.18835067749023438
1397,0,0,0.17833709716796875
1398,0,0,0.19693374633789062
1399,0,0,0.1900196075439453
1400,0,0,0.1780986785888672
1401,0,0,0.1800060272216797
1402,0,0,0.1785755157470703
1403,0,0,0.17786026000976562
1404,0,0,0.1811981201171875
1405,0,0,0.1800060272216797
1406,0,0,0.1800060272216797
1407,0,0,0.17881393432617188
1408,0,0,0.17833709716796875
1409,1,1,0.17452239990234375
1410,0,0,0.17642974853515625
1411,0,0,0.1742839813232422
1412,0,0,0.17142295837402344
1413,3,3,0.1800060272216797
1414,0,0,0.17833709716796875
1415,0,0,0.2319812774658203
1416,0,0,0.19073486328125
1417,0,0,0.1773834228515625
1418,0,0,0.17571449279785156
1419,0,0,0.1838207244873047
1420,0,0,0.19931793212890625
1421,0,0,0.17881393432617188
1422,0,0,0.18143653869628906
1423,0,0,0.17714500427246094
1424,0,0,0.1785755157470703
1425,0,0,0.17690658569335938
1426,0,0,0.1785755157470703
1427,0,0,0.1704692840576172
1428,0,0,0.17213821411132812
1429,0,0,0.1747608184814453
1430,0,0,0.16927719116210938
1431,0,0,0.16689300537109375
1432,0,0,0.2243518829345703
1433,0,0,0.18668174743652344
1434,0,0,0.17142295837402344
1435,0,0,0.1723766326904297
1436,0,0,0.18286705017089844
1437,0,0,0.1773834228515625
1438,0,0,0.17571449279785156
1439,0,0,0.17499923706054688
1440,0,0,0.1697540283203125
1441,2,0,0.1747608184814453
1442,0,0,0.1735687255859375
1443,2,2,0.17404556274414062
1444,0,0,0.17118453979492188
1445,0,0,0.17309188842773438
1446,0,0,0.1742839813232422
1447,0,0,0.16808509826660156
1448,0,0,0.1666545867919922
1449,0,0,0.16880035400390625
1450,0,0,0.22339820861816406
1451,0,0,0.17571449279785156
1452,0,0,0.1671314239501953
1453,0,0,0.1704692840576172
1454,0,0,0.17309188842773438
1455,2,2,0.1785755157470703
1456,0,0,0.18405914306640625
1457,0,0,0.1761913299560547
1458,0,0,0.17547607421875
1459,0,0,0.17261505126953125
1460,0,0,0.1728534698486328
1461,0,0,0.17499923706054688
1462,0,0,0.1842975616455078
1463,0,0,0.20194053649902344
1464,1,0,0.19431114196777344
1465,0,0,0.19860267639160156
1466,0,0,0.19502639770507812
1467,0,0,0.24580955505371094
1468,0,0,0.19788742065429688
1469,0,0,0.19311904907226562
1470,0,0,0.1964569091796875
1471,0,0,0.21338462829589844
1472,0,0,0.1971721649169922
1473,0,0,0.19598007202148438
1474,0,0,0.19621849060058594
1475,0,0,0.1990795135498047
1476,0,0,0.2009868621826172
1477,0,0,0.19860267639160156
1478,0,0,0.18262863159179688
1479,0,0,0.1888275146484375
1480,0,0,0.1881122589111328
1481,2,2,0.19240379333496094
1482,0,0,0.225067138671875
1483,0,0,0.18644332885742188
1484,0,0,0.1728534698486328
1485,0,0,0.17499923706054688
1486,0,0,0.1881122589111328
1487,0,0,0.18358230590820312
1488,0,0,0.19073486328125
1489,0,0,0.18286705017089844
1490,0,0,0.1690387725830078
1491,0,0,0.16641616821289062
1492,0,0,0.179290771484375
1493,2,2,0.1926422119140625
1494,0,0,0.194549560546875
1495,0,0,0.18858909606933594
1496,0,0,0.1914501190185547
1497,0,0,0.1704692840576172
1498,0,0,0.16832351684570312
1499,0,0,0.2117156982421875
1500,3,3,0.17714500427246094
1501,0,0,0.1628398895263672
1502,0,0,0.15735626220703125
1503,0,0,0.1628398895263672
1504,0,0,0.1659393310546875
1505,0,0,0.1628398895263672
1506,0,0,0.16236305236816406
1507,0,0,0.1595020294189453
1508,0,0,0.16021728515625
1509,0,0,0.16260147094726562
1510,0,0,0.1571178436279297
1511,0,0,0.15997886657714844
1512,0,0,0.1609325408935547
1513,2,2,0.1595020294189453
1514,0,0,0.15878677368164062
1515,0,0,0.1595020294189453
1516,0,0,0.1614093780517578
1517,0,0,0.16236305236816406
1518,2,2,0.16236305236816406
1519,0,0,0.16689300537109375
1520,0,0,0.16450881958007812
1521,0,0,0.16188621520996094
1522,0,0,0.1621246337890625
1523,0,0,0.16021728515625
1524,0,0,0.1633167266845703
1525,0,0,0.16164779663085938
1526,2,2,0.16427040100097656
1527,0,0,0.16307830810546875
1528,0,0,0.16427040100097656
1529,0,0,0.16570091247558594
1530,0,0,0.1583099365234375
1531,0,0,0.17452239990234375
1532,0,0,0.16689300537109375
1533,0,0,0.164031982421875
1534,0,0,0.16498565673828125
1535,0,0,0.16307830810546875
1536,0,0,0.164031982421875
1537,0,0,0.1628398895263672
1538,0,0,0.19097328186035156
1539,0,0,0.16045570373535156
1540,0,0,0.16450881958007812
1541,0,0,0.15878677368164062
1542,0,0,0.1575946807861328
1543,0,0,0.15997886657714844
1544,2,2,0.15807151794433594
1545,0,0,0.15974044799804688
1546,0,0,0.16117095947265625
1547,0,0,0.1647472381591797
1548,0,0,0.15735626220703125
1549,0,0,0.1609325408935547
1550,0,0,0.16117095947265625
1551,0,0,0.16355514526367188
1552,0,0,0.1621246337890625
1553,0,0,0.15974044799804688
1554,0,0,0.15878677368164062
1555,0,0,0.16117095947265625
1556,0,0,0.1590251922607422
1557,0,0,0.16808509826660156
1558,0,0,0.1881122589111328
1559,3,2,0.16927719116210938
1560,0,0,0.1659393310546875
1561,0,0,0.15783309936523438
1562,2,2,0.1628398895263672
1563,2,2,0.16164779663085938
1564,0,0,0.1590251922607422
1565,0,0,0.15974044799804688
1566,0,0,0.16570091247558594
1567,0,0,0.1633167266845703
1568,0,0,0.1583099365234375
1569,0,0,0.1614093780517578
1570,0,0,0.1552104949951172
1571,0,0,0.1571178436279297
1572,0,0,0.15783309936523438
1573,0,0,0.16450881958007812
1574,0,0,0.156402587890625
1575,0,0,0.164031982421875
1576,0,0,0.1614093780517578
1577,2,2,0.16117095947265625
1578,0,0,0.1842975616455078
1579,2,2,0.1595020294189453
1580,0,0,0.15997886657714844
1581,0,0,0.1595020294189453
1582,0,0,0.16045570373535156
1583,0,0,0.15783309936523438
1584,0,0,0.16260147094726562
1585,0,0,0.1609325408935547
1586,0,0,0.16021728515625
1587,0,0,0.16260147094726562
1588,0,0,0.1575946807861328
1589,2,2,0.1609325408935547
1590,0,0,0.15926361083984375
1591,0,0,0.16021728515625
1592,0,0,0.1728534698486328
1593,0,0,0.1659393310546875
1594,0,0,0.1621246337890625
1595,2,2,0.17189979553222656
1596,0,0,0.1697540283203125
1597,0,0,0.1595020294189453
1598,0,0,0.19598007202148438
1599,0,0,0.16355514526367188
1600,0,0,0.16260147094726562
1601,0,0,0.15878677368164062
1602,0,0,0.16260147094726562
1603,0,0,0.1633167266845703
1604,0,0,0.16450881958007812
1605,0,0,0.16427040100097656
1606,0,0,0.16236305236816406
1607,0,0,0.15807151794433594
1608,0,0,0.16069412231445312
1609,0,0,0.1628398895263672
1610,0,0,0.16117095947265625
1611,0,0,0.1633167266845703
1612,0,0,0.1621246337890625
1613,0,0,0.1652240753173828
1614,0,0,0.16188621520996094
1615,0,0,0.15807151794433594
1616,0,0,0.15997886657714844
1617,0,0,0.16045570373535156
1618,0,0,0.213623046875
1619,0,0,0.16736984252929688
1620,0,0,0.16379356384277344
1621,0,0,0.156402587890625
1622,2,2,0.16069412231445312
1623,3,0,0.16260147094726562
1624,1,0,0.16307830810546875
1625,0,0,0.15878677368164062
1626,0,0,0.15687942504882812
1627,0,0,0.16021728515625
1628,0,0,0.15854835510253906
1629,0,0,0.1595020294189453
1630,0,0,0.15878677368164062
1631,0,0,0.1575946807861328
1632,0,0,0.15854835510253906
1633,2,2,0.16236305236816406
1634,0,0,0.1633167266845703
1635,0,0,0.16808509826660156
1636,0,0,0.17499923706054688
1637,0,0,0.16689300537109375
1638,0,0,0.18930435180664062
1639,0,0,0.17762184143066406
1640,0,0,0.16999244689941406
1641,2,2,0.16498565673828125
1642,0,0,0.1652240753173828
1643,2,2,0.15997886657714844
1644,0,0,0.16307830810546875
1645,1,1,0.16117095947265625
1646,1,1,0.1575946807861328
1647,0,0,0.15878677368164062
1648,2,2,0.15974044799804688
1649,0,0,0.1614093780517578
1650,2,2,0.16069412231445312
1651,0,0,0.16069412231445312
1652,0,0,0.16069412231445312
1653,1,1,0.16236305236816406
1654,0,0,0.15997886657714844
1655,0,0,0.15926361083984375
1656,0,0,0.15878677368164062
1657,0,0,0.15783309936523438
1658,0,0,0.18072128295898438
1659,0,0,0.1583099365234375
1660,0,0,0.16117095947265625
1661,0,0,0.16045570373535156
1662,0,0,0.16069412231445312
1663,0,0,0.1595020294189453
1664,0,0,0.16236305236816406
1665,0,0,0.15997886657714844
1666,0,0,0.16307830810546875
1667,0,0,0.1583099365234375
1668,0,0,0.1583099365234375
1669,0,0,0.15735626220703125
1670,0,0,0.15926361083984375
1671,0,0,0.15807151794433594
1672,0,0,0.15807151794433594
1673,0,0,0.16355514526367188
1674,0,0,0.16069412231445312
1675,2,2,0.15807151794433594
1676,0,0,0.15974044799804688
1677,0,0,0.15926361083984375
1678,0,0,0.186920166015625
1679,0,0,0.164031982421875
1680,0,0,0.16236305236816406
1681,0,0,0.16021728515625
1682,0,0,0.1678466796875
1683,0,0,0.1659393310546875
1684,2,2,0.1628398895263672
1685,0,0,0.16546249389648438
1686,0,0,0.1766681671142578
1687,0,0,0.1652240753173828
1688,0,0,0.1609325408935547
1689,0,0,0.16355514526367188
1690,0,0,0.15878677368164062
1691,0,0,0.1628398895263672
1692,0,0,0.16236305236816406
1693,0,0,0.16045570373535156
1694,0,0,0.1583099365234375
1695,0,0,0.1659393310546875
1696,0,0,0.1590251922607422
1697,0,0,0.16117095947265625
1698,2,2,0.1666545867919922
1699,0,0,0.1647472381591797
1700,0,0,0.15974044799804688
1701,0,0,0.1609325408935547
1702,0,0,0.15783309936523438
1703,0,0,0.16021728515625
1704,0,0,0.1590251922607422
1705,0,0,0.15664100646972656
1706,0,0,0.15735626220703125
1707,0,0,0.16021728515625
1708,1,1,0.16045570373535156
1709,2,2,0.1614093780517578
1710,0,0,0.16188621520996094
1711,0,0,0.1633167266845703
1712,0,0,0.15783309936523438
1713,0,0,0.15807151794433594
1714,0,0,0.16260147094726562
1715,0,0,0.16045570373535156
1716,0,0,0.1800060272216797
1717,0,0,0.15997886657714844
1718,0,0,0.17642974853515625
1719,0,0,0.15974044799804688
1720,0,0,0.1628398895263672
1721,0,0,0.16236305236816406
1722,0,0,0.16641616821289062
1723,0,0,0.1609325408935547
1724,0,0,0.16045570373535156
1725,0,0,0.15807151794433594
1726,0,0,0.16021728515625
1727,0,0,0.1571178436279297
1728,0,0,0.1633167266845703
1729,0,0,0.1614093780517578
1730,0,0,0.16045570373535156
1731,0,0,0.16307830810546875
1732,0,0,0.15783309936523438
1733,0,0,0.15616416931152344
1734,0,0,0.16164779663085938
1735,0,0,0.1590251922607422
1736,0,0,0.15974044799804688
1737,0,0,0.16117095947265625
1738,0,0,0.18095970153808594
1739,0,0,0.15878677368164062
1740,0,0,0.15687942504882812
1741,0,0,0.1621246337890625
1742,0,0,0.15687942504882812
1743,0,0,0.1575946807861328
1744,0,0,0.15783309936523438
1745,0,0,0.1614093780517578
1746,0,0,0.16069412231445312
1747,0,0,0.1583099365234375
1748,0,0,0.1628398895263672
1749,0,0,0.15854835510253906
1750,0,0,0.1659393310546875
1751,0,0,0.15926361083984375
1752,0,0,0.16021728515625
1753,0,0,0.1621246337890625
1754,0,0,0.16236305236816406
1755,0,0,0.15497207641601562
1756,0,0,0.16117095947265625
1757,0,0,0.1583099365234375
1758,1,1,0.18215179443359375
1759,0,0,0.15854835510253906
1760,0,0,0.15735626220703125
1761,1,1,0.164031982421875
1762,0,0,0.15926361083984375
1763,0,0,0.16236305236816406
1764,0,0,0.15974044799804688
1765,0,0,0.15544891357421875
1766,0,0,0.15854835510253906
1767,0,0,0.16260147094726562
1768,0,0,0.16069412231445312
1769,0,0,0.16045570373535156
1770,0,0,0.1621246337890625
1771,0,0,0.1614093780517578
1772,1,1,0.16427040100097656
1773,0,0,0.15616416931152344
1774,0,0,0.15664100646972656
1775,0,0,0.16236305236816406
1776,0,0,0.16045570373535156
1777,0,0,0.16236305236816406
1778,0,0,0.17714500427246094
1779,0,0,0.16355514526367188
1780,0,0,0.15974044799804688
1781,0,0,0.15807151794433594
1782,0,0,0.16021728515625
1783,0,0,0.1609325408935547
1784,0,0,0.15997886657714844
1785,0,0,0.15735626220703125
1786,0,0,0.16379356384277344
1787,0,0,0.16307830810546875
1788,0,0,0.1575946807861328
1789,0,0,0.1575946807861328
1790,0,0,0.15974044799804688
1791,0,0,0.15878677368164062
1792,0,0,0.15878677368164062
1793,0,0,0.15664100646972656
1794,0,0,0.15974044799804688
1795,0,0,0.156402587890625
1796,0,0,0.1583099365234375
1797,0,0,0.15616416931152344
1798,1,0,0.16021728515625
1799,0,0,0.17905235290527344
1800,0,0,0.15783309936523438
1801,0,0,0.1595020294189453
1802,0,0,0.1614093780517578
1803,2,2,0.15997886657714844
1804,0,0,0.16307830810546875
1805,0,0,0.15616416931152344
1806,0,0,0.15592575073242188
1807,0,0,0.17452239990234375
1808,1,1,0.16069412231445312
1809,0,0,0.1595020294189453
1810,0,0,0.16307830810546875
1811,0,0,0.1556873321533203
1812,0,0,0.15664100646972656
1813,0,0,0.15926361083984375
1814,0,0,0.1556873321533203
1815,0,0,0.16117095947265625
1816,0,0,0.16021728515625
1817,0,0,0.16045570373535156
1818,0,0,0.16117095947265625
1819,0,0,0.18262863159179688
1820,0,0,0.16069412231445312
1821,0,0,0.16045570373535156
1822,0,0,0.15687942504882812
1823,0,0,0.15687942504882812
1824,0,0,0.1575946807861328
1825,2,2,0.16021728515625
1826,0,0,0.15854835510253906
1827,0,0,0.16188621520996094
1828,0,0,0.16927719116210938
1829,2,2,0.15783309936523438
1830,2,2,0.1614093780517578
1831,0,0,0.1647472381591797
1832,0,0,0.16379356384277344
1833,0,0,0.15783309936523438
1834,0,0,0.16880035400390625
1835,0,0,0.1671314239501953
1836,0,0,0.16260147094726562
1837,0,0,0.15997886657714844
1838,0,0,0.15926361083984375
1839,0,0,0.18143653869628906
1840,0,0,0.16045570373535156
1841,0,0,0.1583099365234375
1842,0,0,0.15997886657714844
1843,0,0,0.1590251922607422
1844,0,0,0.16188621520996094
1845,0,0,0.1590251922607422
1846,0,0,0.15687942504882812
1847,0,0,0.16188621520996094
1848,2,2,0.1609325408935547
1849,0,0,0.16427040100097656
1850,0,0,0.1628398895263672
1851,0,0,0.1621246337890625
1852,0,0,0.15783309936523438
1853,0,0,0.1583099365234375
1854,0,0,0.16021728515625
1855,0,0,0.15616416931152344
1856,0,0,0.1621246337890625
1857,0,0,0.1575946807861328
1858,0,0,0.15974044799804688
1859,0,0,0.18215179443359375
1860,0,0,0.17023086547851562
1861,0,0,0.18405914306640625
1862,0,0,0.1938343048095703
1863,0,0,0.1819133758544922
1864,0,0,0.18477439880371094
1865,0,0,0.18167495727539062
1866,0,0,0.18334388732910156
1867,0,0,0.18548965454101562
1868,0,0,0.19121170043945312
1869,0,0,0.20432472229003906
1870,0,0,0.1926422119140625
1871,2,2,0.18548965454101562
1872,0,0,0.18548965454101562
1873,0,0,0.18024444580078125
1874,0,0,0.1780986785888672
1875,0,0,0.1888275146484375
1876,0,0,0.21910667419433594
1877,0,0,0.1876354217529297
1878,0,0,0.17547607421875
1879,0,0,0.17309188842773438
1880,0,0,0.1823902130126953
1881,0,0,0.1780986785888672
1882,0,0,0.19168853759765625
1883,0,0,0.18978118896484375
1884,0,0,0.16546249389648438
1885,0,0,0.16117095947265625
1886,0,0,0.16832351684570312
1887,0,0,0.1590251922607422
1888,0,0,0.16427040100097656
1889,0,0,0.1621246337890625
1890,0,0,0.1633167266845703
1891,0,0,0.15616416931152344
1892,0,0,0.1609325408935547
1893,0,0,0.16999244689941406
1894,0,0,0.20360946655273438
1895,0,0,0.17261505126953125
1896,0,0,0.1652240753173828
1897,0,0,0.16260147094726562
1898,0,0,0.1590251922607422
1899,0,0,0.1628398895263672
1900,0,0,0.15854835510253906
1901,0,0,0.16164779663085938
1902,0,0,0.1575946807861328
1903,0,0,0.16236305236816406
1904,0,0,0.16498565673828125
1905,0,0,0.1575946807861328
1906,0,0,0.1614093780517578
1907,0,0,0.15974044799804688
1908,0,0,0.16188621520996094
1909,0,0,0.15997886657714844
1910,0,0,0.15807151794433594
1911,0,0,0.15878677368164062
1912,0,0,0.15783309936523438
1913,0,0,0.156402587890625
1914,0,0,0.18334388732910156
1915,2,2,0.16236305236816406
1916,0,0,0.15997886657714844
1917,0,0,0.15687942504882812
1918,0,0,0.15735626220703125
1919,0,0,0.15997886657714844
1920,0,0,0.16117095947265625
1921,0,0,0.1659393310546875
1922,0,0,0.16164779663085938
1923,0,0,0.15878677368164062
1924,0,0,0.16689300537109375
1925,0,0,0.1690387725830078
1926,0,0,0.1575946807861328
1927,0,0,0.16117095947265625
1928,0,0,0.15926361083984375
1929,0,0,0.16188621520996094
1930,2,2,0.15878677368164062
1931,1,1,0.1628398895263672
1932,0,0,0.16045570373535156
1933,0,0,0.1590251922607422
1934,0,0,0.18477439880371094
1935,0,0,0.15854835510253906
1936,0,0,0.16069412231445312
1937,0,0,0.1628398895263672
1938,0,0,0.1583099365234375
1939,0,0,0.16021728515625
1940,0,0,0.15878677368164062
1941,0,0,0.16450881958007812
1942,0,0,0.16164779663085938
1943,0,0,0.15807151794433594
1944,0,0,0.1556873321533203
1945,0,0,0.1614093780517578
1946,0,0,0.16355514526367188
1947,0,0,0.16546249389648438
1948,2,2,0.1633167266845703
1949,0,0,0.16021728515625
1950,0,0,0.16450881958007812
1951,0,0,0.15735626220703125
1952,2,2,0.16427040100097656
1953,0,0,0.15878677368164062
1954,1,1,0.1850128173828125
1955,0,0,0.16236305236816406
1956,0,0,0.16379356384277344
1957,0,0,0.15807151794433594
1958,0,0,0.1671314239501953
1959,0,0,0.16450881958007812
1960,0,0,0.15687942504882812
1961,0,0,0.15664100646972656
1962,0,0,0.16570091247558594
1963,1,0,0.16069412231445312
1964,0,0,0.15664100646972656
1965,0,0,0.16427040100097656
1966,0,0,0.16069412231445312
1967,0,0,0.16117095947265625
1968,0,0,0.1575946807861328
1969,0,0,0.1659393310546875
1970,0,0,0.16021728515625
1971,0,0,0.1609325408935547
1972,0,0,0.1633167266845703
1973,0,0,0.15687942504882812
1974,0,0,0.18668174743652344
1975,0,0,0.1659393310546875
1976,0,0,0.1666545867919922
1977,0,0,0.15878677368164062
1978,0,0,0.15735626220703125
1979,0,0,0.16307830810546875
1980,0,0,0.16307830810546875
1981,0,0,0.1595020294189453
1982,0,0,0.1735687255859375
1983,0,0,0.16546249389648438
1984,0,0,0.1583099365234375
1985,3,3,0.16427040100097656
1986,0,0,0.16379356384277344
1987,0,0,0.16164779663085938
1988,0,0,0.1590251922607422
1989,0,0,0.156402587890625
1990,0,0,0.1583099365234375
1991,0,0,0.1571178436279297
1992,0,0,0.16379356384277344
1993,0,0,0.15687942504882812
1994,0,0,0.20313262939453125
1995,0,0,0.16880035400390625
1996,0,0,0.15807151794433594
1997,0,0,0.15687942504882812
1998,0,0,0.15807151794433594
1999,0,0,0.16355514526367188
2000,0,0,0.1595020294189453
2001,0,0,0.16164779663085938
2002,0,0,0.1556873321533203
2003,2,2,0.16045570373535156
2004,0,0,0.16379356384277344
2005,0,0,0.16260147094726562
2006,0,0,0.1583099365234375
2007,0,0,0.16188621520996094
2008,0,0,0.15854835510253906
2009,0,0,0.1556873321533203
2010,0,0,0.15807151794433594
2011,0,0,0.15687942504882812
2012,1,1,0.16164779663085938
2013,0,0,0.15687942504882812
2014,0,0,0.18668174743652344
2015,0,0,0.15926361083984375
2016,0,0,0.16260147094726562
2017,0,0,0.16260147094726562
2018,0,0,0.1647472381591797
2019,0,0,0.1583099365234375
2020,0,0,0.1575946807861328
2021,0,0,0.16379356384277344
2022,0,0,0.16021728515625
2023,0,0,0.1647472381591797
2024,0,0,0.15664100646972656
2025,0,0,0.16045570373535156
2026,0,0,0.1652240753173828
2027,0,0,0.164031982421875
2028,0,0,0.16164779663085938
2029,0,0,0.15616416931152344
2030,0,0,0.16617774963378906
2031,0,0,0.1633167266845703
2032,0,0,0.15997886657714844
2033,0,0,0.1575946807861328
2034,0,0,0.18095970153808594
2035,0,0,0.16498565673828125
2036,0,0,0.16641616821289062
2037,0,0,0.15783309936523438
2038,0,0,0.1628398895263672
2039,0,0,0.15687942504882812
2040,0,0,0.15997886657714844
2041,0,0,0.15664100646972656
2042,0,0,0.16427040100097656
2043,0,0,0.15854835510253906
2044,0,0,0.1595020294189453
2045,0,0,0.1571178436279297
2046,0,0,0.15616416931152344
2047,0,0,0.16427040100097656
2048,0,0,0.15783309936523438
2049,0,0,0.16260147094726562
2050,1,1,0.1621246337890625
2051,0,0,0.15783309936523438
2052,0,0,0.16260147094726562
2053,0,0,0.16760826110839844
2054,0,0,0.17690658569335938
2055,0,0,0.1647472381591797
2056,0,0,0.164031982421875
2057,0,0,0.16045570373535156
2058,0,0,0.15735626220703125
2059,0,0,0.15544891357421875
2060,0,0,0.16260147094726562
2061,0,0,0.16236305236816406
2062,0,0,0.1595020294189453
2063,0,0,0.1652240753173828
2064,2,2,0.1628398895263672
2065,0,0,0.1583099365234375
2066,0,0,0.16164779663085938
2067,0,0,0.15926361083984375
2068,0,0,0.15807151794433594
2069,0,0,0.1552104949951172
2070,0,0,0.1633167266845703
2071,2,2,0.15854835510253906
2072,0,0,0.1614093780517578
2073,0,0,0.1595020294189453
2074,0,0,0.17952919006347656
2075,0,0,0.16641616821289062
2076,0,0,0.16450881958007812
2077,0,0,0.16164779663085938
2078,0,0,0.16379356384277344
2079,0,0,0.16069412231445312
2080,0,0,0.16188621520996094
2081,0,0,0.16427040100097656
2082,0,0,0.16164779663085938
2083,0,0,0.15687942504882812
2084,0,0,0.15616416931152344
2085,0,0,0.1571178436279297
2086,0,0,0.1685619354248047
2087,0,0,0.16450881958007812
2088,0,0,0.16617774963378906
2089,0,0,0.1595020294189453
2090,0,0,0.15473365783691406
2091,0,0,0.16164779663085938
2092,0,0,0.1590251922607422
2093,0,0,0.16260147094726562
2094,0,0,0.15687942504882812
2095,0,0,0.15974044799804688
2096,2,2,0.16236305236816406
2097,0,0,0.1614093780517578
2098,0,0,0.16236305236816406
2099,0,0,0.16045570373535156
2100,0,0,0.1614093780517578
2101,0,0,0.15664100646972656
2102,1,0,0.1614093780517578
2103,2,2,0.1575946807861328
2104,0,0,0.1621246337890625
2105,2,2,0.16832351684570312
2106,0,0,0.15878677368164062
2107,0,0,0.1633167266845703
2108,0,0,0.16164779663085938
2109,0,0,0.16236305236816406
2110,0,0,0.16450881958007812
2111,0,0,0.16069412231445312
2112,0,0,0.16069412231445312
2113,0,0,0.15687942504882812
2114,1,0,0.16355514526367188
2115,0,0,0.18596649169921875
2116,0,0,0.18334388732910156
2117,0,0,0.1614093780517578
2118,0,0,0.16260147094726562
2119,2,2,0.164031982421875
2120,0,0,0.1590251922607422
2121,0,0,0.1628398895263672
2122,0,0,0.15926361083984375
2123,0,0,0.16117095947265625
2124,0,0,0.1595020294189453
2125,0,0,0.16117095947265625
2126,0,0,0.156402587890625
2127,0,0,0.15854835510253906
2128,0,0,0.16188621520996094
2129,0,0,0.1583099365234375
2130,0,0,0.15854835510253906
2131,1,1,0.1621246337890625
2132,0,0,0.1571178436279297
2133,0,0,0.16117095947265625
2134,0,0,0.1850128173828125
2135,0,0,0.17452239990234375
2136,0,0,0.17595291137695312
2137,0,0,0.16760826110839844
2138,0,0,0.16355514526367188
2139,0,0,0.1647472381591797
2140,0,0,0.16498565673828125
2141,0,0,0.1647472381591797
2142,0,0,0.15926361083984375
2143,0,0,0.171661376953125
2144,0,0,0.15687942504882812
2145,0,0,0.1575946807861328
2146,0,0,0.15783309936523438
2147,0,0,0.15997886657714844
2148,0,0,0.16236305236816406
2149,0,0,0.16260147094726562
2150,0,0,0.1571178436279297
2151,0,0,0.15854835510253906
2152,0,0,0.16069412231445312
2153,0,0,0.16045570373535156
2154,0,0,0.18596649169921875
2155,0,0,0.1652240753173828
2156,0,0,0.1614093780517578
2157,0,0,0.1678466796875
2158,0,0,0.1595020294189453
2159,0,0,0.16307830810546875
2160,0,0,0.16260147094726562
2161,0,0,0.1628398895263672
2162,1,1,0.1690387725830078
2163,0,0,0.164031982421875
2164,0,0,0.1633167266845703
2165,0,0,0.15664100646972656
2166,0,0,0.1575946807861328
2167,0,0,0.1633167266845703
2168,0,0,0.16021728515625
2169,0,0,0.16069412231445312
2170,0,0,0.16260147094726562
2171,0,0,0.16045570373535156
2172,0,0,0.16260147094726562
2173,0,0,0.15807151794433594
2174,0,0,0.18262863159179688
2175,0,0,0.16498565673828125
2176,0,0,0.16117095947265625
2177,2,2,0.15926361083984375
2178,0,0,0.15854835510253906
2179,0,0,0.1609325408935547
2180,2,2,0.16069412231445312
2181,0,0,0.164031982421875
2182,0,0,0.16021728515625
2183,0,0,0.1621246337890625
2184,0,0,0.1590251922607422
2185,0,0,0.15664100646972656
2186,0,0,0.1633167266845703
2187,0,0,0.1614093780517578
2188,0,0,0.16498565673828125
2189,0,0,0.16188621520996094
2190,0,0,0.16236305236816406
2191,0,0,0.16117095947265625
2192,0,0,0.16188621520996094
2193,1,1,0.16188621520996094
2194,0,0,0.17786026000976562
2195,0,0,0.1647472381591797
2196,0,0,0.1633167266845703
2197,0,0,0.15878677368164062
2198,0,0,0.15974044799804688
2199,0,0,0.16069412231445312
2200,0,0,0.15807151794433594
2201,0,0,0.16069412231445312
2202,0,0,0.15974044799804688
2203,0,0,0.15735626220703125
2204,0,0,0.16307830810546875
2205,0,0,0.16641616821289062
2206,0,0,0.17213821411132812
2207,0,0,0.16260147094726562
2208,0,0,0.1621246337890625
2209,0,0,0.16021728515625
2210,0,0,0.15974044799804688
2211,0,0,0.1633167266845703
2212,0,0,0.17118453979492188
2213,0,0,0.1666545867919922
2214,0,0,0.19025802612304688
2215,0,0,0.16379356384277344
2216,0,0,0.16450881958007812
2217,0,0,0.16570091247558594
2218,0,0,0.1652240753173828
2219,0,0,0.16379356384277344
2220,0,0,0.1628398895263672
2221,0,0,0.16164779663085938
2222,0,0,0.1595020294189453
2223,0,0,0.1595020294189453
2224,0,0,0.15997886657714844
2225,0,0,0.16355514526367188
2226,0,0,0.1609325408935547
2227,0,0,0.15783309936523438
2228,0,0,0.1571178436279297
2229,0,0,0.1571178436279297
2230,0,0,0.1583099365234375
2231,0,0,0.15687942504882812
2232,0,0,0.1614093780517578
2233,0,0,0.1609325408935547
2234,0,0,0.18405914306640625
2235,0,0,0.16307830810546875
2236,2,2,0.16164779663085938
2237,0,0,0.1575946807861328
2238,0,0,0.16832351684570312
2239,0,0,0.16355514526367188
2240,0,0,0.16236305236816406
2241,0,0,0.16808509826660156
2242,0,0,0.1633167266845703
2243,0,0,0.1628398895263672
2244,0,0,0.1666545867919922
2245,0,0,0.15807151794433594
2246,0,0,0.1633167266845703
2247,0,0,0.15974044799804688
2248,0,0,0.16379356384277344
2249,0,0,0.16188621520996094
2250,0,0,0.16045570373535156
2251,0,0,0.15664100646972656
2252,0,0,0.16450881958007812
2253,0,0,0.15807151794433594
2254,0,0,0.1785755157470703
2255,0,0,0.1633167266845703
2256,0,0,0.15926361083984375
2257,0,0,0.15783309936523438
2258,2,2,0.16355514526367188
2259,0,0,0.16188621520996094
2260,0,0,0.16307830810546875
2261,0,0,0.1590251922607422
2262,0,0,0.1571178436279297
2263,0,0,0.16164779663085938
2264,0,0,0.1633167266845703
2265,0,0,0.15878677368164062
2266,0,0,0.16379356384277344
2267,0,0,0.1609325408935547
2268,0,0,0.1590251922607422
2269,0,0,0.15878677368164062
2270,0,1,0.1614093780517578
2271,0,0,0.15807151794433594
2272,0,0,0.16236305236816406
2273,0,0,0.1628398895263672
2274,0,0,0.18072128295898438
2275,0,0,0.15878677368164062
2276,0,0,0.15783309936523438
2277,0,0,0.16188621520996094
2278,0,0,0.16260147094726562
2279,0,0,0.16069412231445312
2280,0,0,0.16427040100097656
2281,0,0,0.16236305236816406
2282,2,2,0.16117095947265625
2283,0,0,0.1590251922607422
2284,0,0,0.15997886657714844
2285,0,0,0.15687942504882812
2286,0,0,0.16570091247558594
2287,0,0,0.16379356384277344
2288,0,0,0.1671314239501953
2289,0,0,0.16236305236816406
2290,0,0,0.1609325408935547
2291,0,0,0.15687942504882812
2292,0,0,0.16117095947265625
2293,0,0,0.16045570373535156
2294,0,0,0.17642974853515625
2295,0,0,0.1621246337890625
2296,0,0,0.16450881958007812
2297,0,0,0.1614093780517578
2298,0,0,0.16450881958007812
2299,0,0,0.1595020294189453
2300,0,0,0.1678466796875
2301,0,0,0.1678466796875
2302,0,0,0.1590251922607422
2303,0,0,0.17118453979492188
2304,2,2,0.15974044799804688
2305,0,0,0.1571178436279297
2306,0,0,0.1633167266845703
2307,0,0,0.1575946807861328
2308,0,0,0.15997886657714844
2309,0,0,0.16427040100097656
2310,0,0,0.1571178436279297
2311,0,0,0.17786026000976562
2312,0,0,0.15854835510253906
2313,2,2,0.16260147094726562
2314,0,0,0.18024444580078125
2315,0,0,0.16069412231445312
2316,0,0,0.16689300537109375
2317,0,0,0.17905235290527344
2318,0,0,0.17309188842773438
2319,0,0,0.164031982421875
2320,2,2,0.16236305236816406
2321,3,3,0.1647472381591797
2322,0,0,0.1609325408935547
2323,0,0,0.15974044799804688
2324,0,0,0.16045570373535156
2325,0,0,0.15616416931152344
2326,0,0,0.15735626220703125
2327,0,0,0.1647472381591797
2328,0,0,0.1633167266845703
2329,0,0,0.16307830810546875
2330,0,0,0.16045570373535156
2331,0,0,0.1614093780517578
2332,2,2,0.15997886657714844
2333,2,2,0.16164779663085938
2334,0,0,0.1881122589111328
2335,0,0,0.16236305236816406
2336,0,0,0.16045570373535156
2337,0,0,0.15854835510253906
2338,0,0,0.1575946807861328
2339,0,0,0.15997886657714844
2340,1,1,0.16236305236816406
2341,0,0,0.1614093780517578
2342,0,0,0.16117095947265625
2343,0,0,0.1595020294189453
2344,3,3,0.1652240753173828
2345,2,2,0.1590251922607422
2346,0,0,0.1552104949951172
2347,0,0,0.1556873321533203
2348,0,0,0.1609325408935547
2349,0,0,0.1628398895263672
2350,0,0,0.16236305236816406
2351,2,2,0.1723766326904297
2352,0,0,0.16260147094726562
2353,0,0,0.16117095947265625
2354,0,0,0.18525123596191406
2355,0,0,0.164031982421875
2356,0,0,0.17309188842773438
2357,0,0,0.16117095947265625
2358,0,0,0.164031982421875
2359,0,0,0.15997886657714844
2360,0,0,0.1633167266845703
2361,0,0,0.16117095947265625
2362,0,0,0.1609325408935547
2363,0,0,0.1780986785888672
2364,0,0,0.18405914306640625
2365,0,0,0.18453598022460938
2366,0,0,0.1811981201171875
2367,0,0,0.17452239990234375
2368,0,0,0.18548965454101562
2369,0,0,0.19097328186035156
2370,0,0,0.19550323486328125
2371,0,0,0.19598007202148438
2372,0,0,0.3142356872558594
2373,0,0,0.1666545867919922
2374,2,2,0.1709461212158203
2375,0,0,0.18024444580078125
2376,0,0,0.1838207244873047
2377,0,0,0.17690658569335938
2378,0,0,0.1735687255859375
2379,0,0,0.17642974853515625
2380,0,0,0.1678466796875
2381,0,0,0.16164779663085938
2382,2,2,0.1659393310546875
2383,0,0,0.15735626220703125
2384,0,0,0.16188621520996094
2385,0,0,0.179290771484375
2386,0,0,0.1785755157470703
2387,0,0,0.164031982421875
2388,0,0,0.1621246337890625
2389,1,1,0.16236305236816406
2390,0,0,0.2512931823730469
2391,0,0,0.17213821411132812
2392,0,0,0.15997886657714844
2393,0,0,0.16617774963378906
2394,0,0,0.16164779663085938
2395,0,0,0.15997886657714844
2396,0,0,0.16307830810546875
2397,0,0,0.16307830810546875
2398,0,0,0.16260147094726562
2399,0,0,0.1595020294189453
2400,0,0,0.16069412231445312
2401,0,0,0.1621246337890625
2402,0,0,0.16021728515625
2403,0,0,0.16117095947265625
2404,2,2,0.16760826110839844
2405,0,0,0.1652240753173828
2406,0,0,0.16188621520996094
2407,0,0,0.16307830810546875
2408,0,0,0.16450881958007812
2409,0,0,0.21648406982421875
2410,0,0,0.164031982421875
2411,0,0,0.16498565673828125
2412,0,0,0.16117095947265625
2413,0,0,0.16236305236816406
2414,1,1,0.1628398895263672
2415,0,0,0.16260147094726562
2416,0,0,0.1621246337890625
2417,0,0,0.1633167266845703
2418,0,0,0.15926361083984375
2419,2,2,0.15926361083984375
2420,0,0,0.16260147094726562
2421,0,0,0.16164779663085938
2422,0,0,0.15783309936523438
2423,0,0,0.1685619354248047
2424,0,0,0.16951560974121094
2425,0,0,0.1652240753173828
2426,0,0,0.1666545867919922
2427,2,2,0.16546249389648438
2428,0,0,0.17023086547851562
2429,0,0,0.1761913299560547
2430,0,0,0.16021728515625
2431,0,0,0.16450881958007812
2432,0,0,0.15807151794433594
2433,0,0,0.1690387725830078
2434,0,0,0.1659393310546875
2435,0,0,0.16117095947265625
2436,0,0,0.1647472381591797
2437,0,0,0.16307830810546875
2438,0,0,0.16379356384277344
2439,2,2,0.15926361083984375
2440,0,0,0.1609325408935547
2441,0,0,0.15687942504882812
2442,0,0,0.1575946807861328
2443,0,0,0.15687942504882812
2444,0,0,0.15616416931152344
2445,0,0,0.15926361083984375
2446,0,0,0.1621246337890625
2447,0,0,0.15616416931152344
2448,0,0,0.1823902130126953
2449,0,0,0.16450881958007812
2450,0,0,0.15878677368164062
2451,0,0,0.1595020294189453
2452,0,0,0.15974044799804688
2453,0,0,0.1621246337890625
2454,0,0,0.15878677368164062
2455,0,0,0.1575946807861328
2456,0,0,0.15854835510253906
2457,0,0,0.16260147094726562
2458,0,0,0.16307830810546875
2459,0,0,0.1609325408935547
2460,0,0,0.15687942504882812
2461,0,0,0.156402587890625
2462,0,0,0.1671314239501953
2463,0,0,0.1609325408935547
2464,0,0,0.1621246337890625
2465,0,0,0.16260147094726562
2466,0,0,0.16045570373535156
2467,0,0,0.1621246337890625
2468,0,0,0.16379356384277344
2469,0,0,0.16927719116210938
2470,0,0,0.1647472381591797
2471,0,0,0.1609325408935547
2472,0,0,0.16188621520996094
2473,0,0,0.15974044799804688
2474,1,1,0.16236305236816406
2475,0,0,0.15783309936523438
2476,0,0,0.1556873321533203
2477,0,0,0.156402587890625
2478,3,3,0.1609325408935547
2479,0,0,0.16546249389648438
2480,0,0,0.16164779663085938
2481,0,0,0.15878677368164062
2482,0,0,0.1614093780517578
2483,0,0,0.16164779663085938
2484,0,0,0.16641616821289062
2485,0,0,0.1628398895263672
2486,0,0,0.16236305236816406
2487,0,0,0.15926361083984375
2488,0,0,0.1609325408935547
2489,0,0,0.16260147094726562
2490,0,0,0.15878677368164062
2491,0,0,0.16117095947265625
2492,0,0,0.15735626220703125
2493,2,2,0.16045570373535156
2494,0,0,0.164031982421875
2495,0,0,0.1583099365234375
2496,0,0,0.156402587890625
2497,0,0,0.16236305236816406
2498,0,0,0.15997886657714844
2499,0,0,0.1614093780517578
2500,0,0,0.1647472381591797
2501,0,0,0.1609325408935547
2502,0,0,0.16236305236816406
2503,0,0,0.1575946807861328
2504,0,0,0.15735626220703125
2505,0,0,0.1609325408935547
2506,0,0,0.1583099365234375
2507,0,0,0.16164779663085938
2508,0,0,0.1628398895263672
2509,0,0,0.1773834228515625
2510,0,0,0.16260147094726562
2511,0,0,0.16045570373535156
2512,2,2,0.16069412231445312
2513,0,0,0.1556873321533203
2514,0,0,0.1575946807861328
2515,0,0,0.16307830810546875
2516,0,0,0.15854835510253906
2517,0,0,0.156402587890625
2518,0,0,0.15664100646972656
2519,0,0,0.1571178436279297
2520,0,0,0.15997886657714844
2521,2,2,0.16117095947265625
2522,2,2,0.15807151794433594
2523,1,1,0.15878677368164062
2524,0,0,0.16117095947265625
2525,2,2,0.15926361083984375
2526,0,0,0.15878677368164062
2527,0,0,0.1583099365234375
2528,0,0,0.1571178436279297
2529,0,0,0.17595291137695312
2530,0,0,0.16069412231445312
2531,0,0,0.1633167266845703
2532,0,0,0.16021728515625
2533,0,0,0.15687942504882812
2534,0,0,0.1614093780517578
2535,0,0,0.15997886657714844
2536,0,0,0.1621246337890625
2537,0,0,0.16379356384277344
2538,0,0,0.1583099365234375
2539,0,0,0.16045570373535156
2540,0,0,0.1628398895263672
2541,0,0,0.16021728515625
2542,1,1,0.1621246337890625
2543,2,2,0.1614093780517578
2544,0,0,0.1571178436279297
2545,0,0,0.16045570373535156
2546,0,0,0.15926361083984375
2547,0,0,0.16689300537109375
2548,0,0,0.16236305236816406
2549,0,0,0.1761913299560547
2550,0,0,0.1621246337890625
2551,0,0,0.16188621520996094
2552,0,0,0.15974044799804688
2553,0,0,0.16808509826660156
2554,0,0,0.1609325408935547
2555,0,0,0.16069412231445312
2556,0,0,0.1633167266845703
2557,0,0,0.1609325408935547
2558,0,0,0.16307830810546875
2559,0,0,0.15926361083984375
2560,2,2,0.16307830810546875
2561,0,0,0.16045570373535156
2562,2,2,0.16021728515625
2563,0,0,0.16021728515625
2564,0,0,0.16069412231445312
2565,0,0,0.15735626220703125
2566,0,0,0.17118453979492188
2567,0,0,0.1633167266845703
2568,0,0,0.16307830810546875
2569,0,0,0.18477439880371094
2570,2,2,0.17023086547851562
2571,0,0,0.16546249389648438
2572,0,0,0.16379356384277344
2573,1,1,0.16307830810546875
2574,0,0,0.1583099365234375
2575,0,0,0.16546249389648438
2576,0,0,0.1583099365234375
2577,0,0,0.16307830810546875
2578,0,0,0.1647472381591797
2579,2,2,0.1614093780517578
2580,2,2,0.16450881958007812
2581,0,0,0.1590251922607422
2582,2,2,0.15807151794433594
2583,0,0,0.16260147094726562
2584,0,0,0.16045570373535156
2585,0,0,0.16689300537109375
2586,0,0,0.16188621520996094
2587,0,0,0.1621246337890625
2588,0,0,0.1633167266845703
2589,0,0,0.1881122589111328
2590,0,0,0.16260147094726562
2591,0,0,0.15974044799804688
2592,0,0,0.16498565673828125
2593,0,0,0.15926361083984375
2594,3,3,0.1628398895263672
2595,0,0,0.16260147094726562
2596,0,0,0.1628398895263672
2597,0,0,0.1628398895263672
2598,0,0,0.15783309936523438
2599,0,0,0.1633167266845703
2600,0,0,0.15878677368164062
2601,0,0,0.15616416931152344
2602,2,2,0.16307830810546875
2603,0,0,0.16117095947265625
2604,0,0,0.15807151794433594
2605,0,0,0.1575946807861328
2606,0,0,0.15735626220703125
2607,0,0,0.16260147094726562
2608,2,2,0.1575946807861328
2609,1,1,0.18453598022460938
2610,0,0,0.1747608184814453
2611,0,0,0.1823902130126953
2612,0,0,0.16736984252929688
2613,0,2,0.16427040100097656
2614,0,0,0.1595020294189453
2615,0,0,0.16164779663085938
2616,0,0,0.15878677368164062
2617,0,0,0.16164779663085938
2618,0,0,0.16021728515625
2619,0,0,0.1609325408935547
2620,0,0,0.16188621520996094
2621,0,0,0.15926361083984375
2622,0,0,0.16999244689941406
2623,0,0,0.18644332885742188
2624,0,0,0.1964569091796875
2625,0,0,0.16832351684570312
2626,0,0,0.1583099365234375
2627,2,2,0.16188621520996094
2628,0,0,0.19073486328125
2629,0,0,0.1678466796875
2630,0,0,0.16999244689941406
2631,0,0,0.1583099365234375
2632,0,0,0.15735626220703125
2633,0,0,0.15854835510253906
2634,0,0,0.15735626220703125
2635,2,2,0.16260147094726562
2636,0,0,0.16641616821289062
2637,0,0,0.16546249389648438
2638,0,0,0.16379356384277344
2639,0,0,0.16307830810546875
2640,3,3,0.1633167266845703
2641,0,0,0.16260147094726562
2642,0,0,0.15664100646972656
2643,0,0,0.15926361083984375
2644,0,0,0.16069412231445312
2645,0,0,0.16927719116210938
2646,0,0,0.16498565673828125
2647,0,0,0.17118453979492188
2648,0,0,0.19669532775878906
2649,0,0,0.16951560974121094
2650,0,0,0.16117095947265625
2651,0,0,0.1621246337890625
2652,0,0,0.16427040100097656
2653,2,2,0.16045570373535156
2654,0,0,0.16069412231445312
2655,0,0,0.15926361083984375
2656,0,0,0.16236305236816406
2657,0,0,0.1773834228515625
2658,2,2,0.1671314239501953
2659,0,0,0.1647472381591797
2660,0,0,0.15974044799804688
2661,0,0,0.15664100646972656
2662,0,0,0.16236305236816406
2663,0,0,0.16188621520996094
2664,0,0,0.1609325408935547
2665,2,2,0.15997886657714844
2666,0,0,0.15854835510253906
2667,0,0,0.18262863159179688
2668,0,0,0.16832351684570312
2669,0,0,0.15878677368164062
2670,0,0,0.16188621520996094
2671,0,0,0.16236305236816406
2672,0,0,0.15783309936523438
2673,0,0,0.16307830810546875
2674,0,0,0.15783309936523438
2675,0,0,0.16188621520996094
2676,0,0,0.1590251922607422
2677,0,0,0.16236305236816406
2678,0,0,0.1571178436279297
2679,0,0,0.1583099365234375
2680,0,0,0.16498565673828125
2681,0,0,0.16355514526367188
2682,0,0,0.1609325408935547
2683,0,0,0.15783309936523438
2684,0,0,0.1575946807861328
2685,0,0,0.15592575073242188
2686,1,1,0.16427040100097656
2687,0,0,0.16021728515625
2688,0,0,0.1678466796875
2689,0,0,0.16021728515625
2690,0,0,0.16045570373535156
2691,0,0,0.15687942504882812
2692,0,0,0.1609325408935547
2693,0,0,0.16188621520996094
2694,0,0,0.16045570373535156
2695,0,0,0.16164779663085938
2696,2,2,0.16045570373535156
2697,0,0,0.15997886657714844
2698,0,0,0.15783309936523438
2699,0,0,0.15664100646972656
2700,0,0,0.16069412231445312
2701,0,0,0.16260147094726562
2702,0,0,0.16188621520996094
2703,0,0,0.16164779663085938
2704,0,0,0.1647472381591797
2705,0,0,0.15783309936523438
2706,0,0,0.15735626220703125
2707,0,0,0.16117095947265625
2708,0,0,0.18334388732910156
2709,0,0,0.1628398895263672
2710,0,0,0.16427040100097656
2711,0,0,0.15783309936523438
2712,0,0,0.16617774963378906
2713,0,0,0.16307830810546875
2714,0,0,0.15616416931152344
2715,0,0,0.1609325408935547
2716,0,0,0.15878677368164062
2717,2,2,0.16069412231445312
2718,0,0,0.1621246337890625
2719,0,0,0.15687942504882812
2720,0,0,0.1571178436279297
2721,0,0,0.16021728515625
2722,0,0,0.1575946807861328
2723,0,0,0.15616416931152344
2724,0,0,0.1621246337890625
2725,0,0,0.1571178436279297
2726,0,0,0.1652240753173828
2727,0,0,0.16379356384277344
2728,0,0,0.186920166015625
2729,0,0,0.16236305236816406
2730,2,2,0.16307830810546875
2731,0,0,0.15735626220703125
2732,0,0,0.16450881958007812
2733,0,0,0.16045570373535156
2734,0,0,0.1647472381591797
2735,0,0,0.171661376953125
2736,0,0,0.1652240753173828
2737,0,0,0.15926361083984375
2738,0,0,0.16069412231445312
2739,0,0,0.1621246337890625
2740,0,0,0.17333030700683594
2741,0,0,0.19097328186035156
2742,0,0,0.1780986785888672
2743,0,0,0.18310546875
2744,0,0,0.19621849060058594
2745,0,0,0.194549560546875
2746,0,0,0.2162456512451172
2747,0,0,0.1704692840576172
2748,0,0,0.16260147094726562
2749,0,0,0.17762184143066406
2750,0,0,0.171661376953125
2751,0,0,0.1621246337890625
2752,0,0,0.16117095947265625
2753,0,0,0.16260147094726562
2754,0,0,0.15687942504882812
2755,0,0,0.1671314239501953
2756,0,0,0.1652240753173828
2757,0,0,0.1823902130126953
2758,0,0,0.16808509826660156
2759,0,0,0.15854835510253906
2760,0,0,0.18095970153808594
2761,0,0,0.19240379333496094
2762,2,2,0.17261505126953125
2763,0,0,0.16427040100097656
2764,0,0,0.16951560974121094
2765,0,0,0.20575523376464844
2766,0,0,0.1678466796875
2767,0,0,0.1628398895263672
2768,0,0,0.1609325408935547
2769,0,0,0.16427040100097656
2770,0,0,0.15926361083984375
2771,0,0,0.15807151794433594
2772,0,0,0.17333030700683594
2773,0,0,0.17976760864257812
2774,0,0,0.18453598022460938
2775,0,0,0.19550323486328125
2776,2,2,0.2117156982421875
2777,2,2,0.20813941955566406
2778,0,0,0.19216537475585938
2779,0,0,0.186920166015625
2780,0,0,0.1800060272216797
2781,0,0,0.18596649169921875
2782,0,0,0.22554397583007812
2783,0,0,0.2167224884033203
2784,0,0,0.20503997802734375
2785,0,0,0.2086162567138672
2786,0,0,0.20885467529296875
2787,0,0,0.19860267639160156
2788,0,0,0.1938343048095703
2789,0,0,0.19121170043945312
2790,0,0,0.19168853759765625
2791,0,0,0.1804828643798828
2792,0,0,0.17118453979492188
2793,0,0,0.17023086547851562
2794,0,0,0.1678466796875
2795,0,0,0.1842975616455078
2796,0,0,0.1785755157470703
2797,0,0,0.16355514526367188
2798,0,0,0.21004676818847656
2799,0,0,0.1671314239501953
2800,0,0,0.15926361083984375
2801,0,0,0.16164779663085938
2802,0,0,0.15878677368164062
2803,0,0,0.16570091247558594
2804,0,0,0.1647472381591797
2805,0,0,0.1614093780517578
2806,0,0,0.1628398895263672
2807,0,0,0.1621246337890625
2808,0,0,0.1583099365234375
2809,1,1,0.16260147094726562
2810,0,0,0.15974044799804688
2811,0,0,0.1628398895263672
2812,0,0,0.1647472381591797
2813,0,0,0.16164779663085938
2814,1,1,0.16117095947265625
2815,2,2,0.17642974853515625
2816,0,0,0.1614093780517578
2817,0,0,0.16236305236816406
2818,0,0,0.1876354217529297
2819,2,2,0.16117095947265625
2820,0,0,0.1614093780517578
2821,0,0,0.16260147094726562
2822,2,2,0.1583099365234375
2823,0,0,0.1609325408935547
2824,0,0,0.15926361083984375
2825,0,0,0.15687942504882812
2826,0,0,0.1628398895263672
2827,0,0,0.16236305236816406
2828,0,0,0.16021728515625
2829,0,0,0.1609325408935547
2830,0,0,0.156402587890625
2831,0,0,0.1571178436279297
2832,0,0,0.16069412231445312
2833,0,0,0.15974044799804688
2834,0,0,0.16045570373535156
2835,0,0,0.1575946807861328
2836,0,0,0.1614093780517578
2837,0,0,0.15974044799804688
2838,0,0,0.18787384033203125
2839,0,0,0.16355514526367188
2840,0,0,0.15807151794433594
2841,2,2,0.15878677368164062
2842,0,0,0.15926361083984375
2843,0,0,0.1628398895263672
2844,2,2,0.15974044799804688
2845,0,0,0.15997886657714844
2846,0,0,0.1609325408935547
2847,0,0,0.1609325408935547
2848,0,0,0.16236305236816406
2849,0,0,0.15687942504882812
2850,0,0,0.15854835510253906
2851,0,0,0.16164779663085938
2852,0,0,0.1595020294189453
2853,0,0,0.15854835510253906
2854,0,0,0.18095970153808594
2855,0,0,0.1850128173828125
2856,0,0,0.1766681671142578
2857,0,0,0.3407001495361328
2858,0,0,0.17714500427246094
2859,0,0,0.17189979553222656
2860,1,0,0.17714500427246094
2861,0,0,0.1995563507080078
2862,0,0,0.21123886108398438
2863,0,0,0.18739700317382812
2864,2,2,0.18262863159179688
2865,0,0,0.17690658569335938
2866,1,1,0.19478797912597656
2867,0,0,0.18906593322753906
2868,0,0,0.18334388732910156
2869,0,0,0.18262863159179688
2870,0,0,0.16689300537109375
2871,0,0,0.1633167266845703
2872,0,0,0.16164779663085938
2873,0,0,0.16021728515625
2874,0,0,0.21147727966308594
2875,0,0,0.17905235290527344
2876,0,0,0.16808509826660156
2877,0,0,0.1575946807861328
2878,0,0,0.16689300537109375
2879,0,0,0.16450881958007812
2880,0,0,0.15974044799804688
2881,0,0,0.16164779663085938
2882,2,2,0.16164779663085938
2883,0,0,0.1614093780517578
2884,0,0,0.1652240753173828
2885,0,0,0.16307830810546875
2886,0,0,0.16498565673828125
2887,2,2,0.16355514526367188
2888,0,0,0.15974044799804688
2889,0,0,0.1614093780517578
2890,0,0,0.16164779663085938
2891,0,0,0.1621246337890625
2892,0,0,0.15664100646972656
2893,0,0,0.19431114196777344
2894,3,3,0.16927719116210938
2895,0,0,0.16450881958007812
2896,0,0,0.16045570373535156
2897,0,0,0.1571178436279297
2898,0,0,0.1583099365234375
2899,0,0,0.15974044799804688
2900,0,0,0.156402587890625
2901,0,0,0.1583099365234375
2902,1,1,0.16427040100097656
2903,0,0,0.15854835510253906
2904,0,0,0.1647472381591797
2905,0,0,0.1583099365234375
2906,0,0,0.1552104949951172
2907,0,0,0.1590251922607422
2908,0,0,0.15616416931152344
2909,0,0,0.15616416931152344
2910,0,0,0.1575946807861328
2911,2,2,0.15974044799804688
2912,0,0,0.16307830810546875
2913,0,0,0.17976760864257812
2914,0,0,0.1621246337890625
2915,3,0,0.1583099365234375
2916,0,0,0.15878677368164062
2917,0,0,0.16307830810546875
2918,0,0,0.1583099365234375
2919,0,0,0.164031982421875
2920,0,0,0.16379356384277344
2921,2,2,0.1583099365234375
2922,0,0,0.15807151794433594
2923,0,0,0.15878677368164062
2924,0,0,0.15664100646972656
2925,0,0,0.15544891357421875
2926,0,0,0.1590251922607422
2927,0,0,0.15735626220703125
2928,0,0,0.1614093780517578
2929,1,1,0.16117095947265625
2930,0,0,0.15878677368164062
2931,0,0,0.1575946807861328
2932,3,0,0.15926361083984375
2933,0,0,0.15783309936523438
2934,0,0,0.19741058349609375
2935,0,0,0.16641616821289062
2936,0,0,0.1697540283203125
2937,0,0,0.1659393310546875
2938,0,0,0.1621246337890625
2939,0,0,0.15783309936523438
2940,0,0,0.16188621520996094
2941,2,2,0.15664100646972656
2942,0,0,0.1628398895263672
2943,0,0,0.16689300537109375
2944,0,0,0.15783309936523438
2945,1,1,0.16021728515625
2946,0,0,0.1571178436279297
2947,2,2,0.1609325408935547
2948,0,0,0.15974044799804688
2949,2,2,0.164031982421875
2950,0,0,0.16045570373535156
2951,0,0,0.15807151794433594
2952,0,0,0.17070770263671875
2953,0,0,0.1609325408935547
2954,0,0,0.1628398895263672
2955,0,0,0.1614093780517578
2956,0,0,0.1633167266845703
2957,0,0,0.1595020294189453
2958,2,2,0.15735626220703125
2959,0,0,0.16498565673828125
2960,0,0,0.16379356384277344
2961,0,0,0.1614093780517578
2962,0,0,0.16355514526367188
2963,0,0,0.1621246337890625
2964,0,0,0.16117095947265625
2965,0,0,0.16069412231445312
2966,0,0,0.1571178436279297
2967,0,0,0.16164779663085938
2968,0,0,0.16260147094726562
2969,0,0,0.16307830810546875
2970,0,0,0.16379356384277344
2971,0,0,0.15997886657714844
2972,2,2,0.1590251922607422
2973,0,0,0.15735626220703125
2974,0,0,0.1666545867919922
2975,0,0,0.16117095947265625
2976,0,0,0.16427040100097656
2977,0,0,0.16307830810546875
2978,1,1,0.1628398895263672
2979,2,2,0.1590251922607422
2980,0,0,0.156402587890625
2981,0,0,0.1575946807861328
2982,0,0,0.16450881958007812
2983,0,0,0.17261505126953125
2984,0,0,0.16164779663085938
2985,0,0,0.15735626220703125
2986,0,0,0.1575946807861328
2987,0,0,0.16021728515625
2988,0,0,0.15783309936523438
2989,0,0,0.15997886657714844
2990,3,3,0.1633167266845703
2991,0,0,0.1595020294189453
2992,2,2,0.1595020294189453
2993,0,0,0.1614093780517578
2994,0,0,0.164031982421875
2995,2,2,0.16236305236816406
2996,0,0,0.16117095947265625
2997,0,0,0.16069412231445312
2998,0,0,0.1614093780517578
2999,0,0,0.1575946807861328
3000,0,0,0.16021728515625
3001,0,0,0.1595020294189453
3002,2,2,0.16069412231445312
3003,0,0,0.15997886657714844
3004,2,2,0.15854835510253906
3005,0,0,0.16236305236816406
3006,0,0,0.1583099365234375
3007,0,0,0.1614093780517578
3008,0,0,0.156402587890625
3009,0,0,0.1595020294189453
3010,0,0,0.16307830810546875
3011,0,0,0.15854835510253906
3012,0,0,0.16379356384277344
3013,0,0,0.1614093780517578
3014,2,2,0.18334388732910156
3015,0,0,0.1590251922607422
3016,0,0,0.1595020294189453
3017,0,0,0.1575946807861328
3018,0,0,0.15616416931152344
3019,0,0,0.15616416931152344
3020,1,1,0.16307830810546875
3021,0,0,0.1571178436279297
3022,0,0,0.1609325408935547
3023,0,0,0.15974044799804688
3024,0,0,0.15878677368164062
3025,0,0,0.15592575073242188
3026,0,0,0.15687942504882812
3027,0,0,0.17189979553222656
3028,0,0,0.1690387725830078
3029,0,0,0.16427040100097656
3030,0,0,0.1583099365234375
3031,0,0,0.1575946807861328
3032,0,0,0.16450881958007812
3033,0,0,0.16570091247558594
3034,0,0,0.18548965454101562
3035,0,0,0.16260147094726562
3036,0,0,0.164031982421875
3037,2,2,0.1571178436279297
3038,0,0,0.164031982421875
3039,0,0,0.16307830810546875
3040,0,0,0.1571178436279297
3041,2,2,0.16021728515625
3042,0,0,0.16045570373535156
3043,0,0,0.15974044799804688
3044,0,0,0.1583099365234375
3045,0,0,0.15854835510253906
3046,0,0,0.16045570373535156
3047,0,0,0.16355514526367188
3048,0,0,0.15664100646972656
3049,0,0,0.1614093780517578
3050,0,0,0.15592575073242188
3051,0,0,0.16069412231445312
3052,0,0,0.1609325408935547
3053,0,0,0.15735626220703125
3054,0,0,0.18072128295898438
3055,0,0,0.1590251922607422
3056,0,0,0.15997886657714844
3057,1,1,0.1621246337890625
3058,0,0,0.16188621520996094
3059,0,0,0.16117095947265625
3060,0,0,0.156402587890625
3061,0,0,0.15974044799804688
3062,0,0,0.15807151794433594
3063,0,0,0.16570091247558594
3064,0,0,0.16069412231445312
3065,0,0,0.16546249389648438
3066,0,0,0.1609325408935547
3067,0,0,0.1621246337890625
3068,0,0,0.16045570373535156
3069,1,1,0.15974044799804688
3070,0,0,0.15687942504882812
3071,0,0,0.16236305236816406
3072,0,0,0.1614093780517578
3073,0,0,0.15878677368164062
3074,0,0,0.18095970153808594
3075,0,0,0.16188621520996094
3076,0,0,0.1609325408935547
3077,0,0,0.16260147094726562
3078,0,0,0.16498565673828125
3079,0,0,0.1583099365234375
3080,0,0,0.16117095947265625
3081,0,0,0.1571178436279297
3082,0,0,0.15807151794433594
3083,0,0,0.16021728515625
3084,0,0,0.16236305236816406
3085,0,0,0.1595020294189453
3086,0,0,0.1614093780517578
3087,0,0,0.16045570373535156
3088,0,0,0.15926361083984375
3089,0,0,0.15854835510253906
3090,0,0,0.15807151794433594
3091,0,0,0.15687942504882812
3092,0,0,0.156402587890625
3093,0,0,0.16427040100097656
3094,3,3,0.18143653869628906
3095,0,0,0.16021728515625
3096,0,0,0.16164779663085938
3097,0,0,0.1621246337890625
3098,0,0,0.16307830810546875
3099,0,0,0.15783309936523438
3100,0,0,0.15878677368164062
3101,0,0,0.156402587890625
3102,0,0,0.1595020294189453
3103,0,0,0.15497207641601562
3104,2,2,0.15783309936523438
3105,0,0,0.16450881958007812
3106,0,0,0.1595020294189453
3107,0,0,0.16236305236816406
3108,0,0,0.15687942504882812
3109,0,0,0.15926361083984375
3110,2,2,0.16069412231445312
3111,0,0,0.16546249389648438
3112,0,0,0.16808509826660156
3113,0,0,0.164031982421875
3114,0,0,0.1647472381591797
3115,0,0,0.16427040100097656
3116,0,0,0.16498565673828125
3117,0,0,0.16164779663085938
3118,0,0,0.16546249389648438
3119,0,0,0.16164779663085938
3120,0,0,0.1590251922607422
3121,0,0,0.16188621520996094
3122,0,0,0.15783309936523438
3123,2,2,0.16236305236816406
3124,0,0,0.1583099365234375
3125,0,0,0.1583099365234375
3126,0,0,0.15807151794433594
3127,0,0,0.15974044799804688
3128,2,2,0.15997886657714844
3129,0,0,0.15926361083984375
3130,0,0,0.16260147094726562
3131,0,0,0.15783309936523438
3132,0,0,0.16355514526367188
3133,0,0,0.16069412231445312
3134,0,0,0.15687942504882812
3135,0,0,0.18167495727539062
3136,2,2,0.1659393310546875
3137,0,0,0.15878677368164062
3138,0,0,0.16164779663085938
3139,0,0,0.16045570373535156
3140,0,0,0.16069412231445312
3141,0,0,0.16188621520996094
3142,2,2,0.1583099365234375
3143,0,0,0.16069412231445312
3144,0,0,0.15783309936523438
3145,0,0,0.15807151794433594
3146,0,0,0.15926361083984375
3147,0,0,0.16045570373535156
3148,0,0,0.1575946807861328
3149,0,0,0.16069412231445312
3150,0,0,0.16307830810546875
3151,0,0,0.17118453979492188
3152,0,0,0.16164779663085938
3153,0,0,0.16999244689941406
3154,0,0,0.16045570373535156
3155,0,0,0.1766681671142578
3156,2,2,0.16307830810546875
3157,0,0,0.16117095947265625
3158,0,0,0.15687942504882812
3159,0,0,0.156402587890625
3160,0,0,0.1609325408935547
3161,0,0,0.16164779663085938
3162,0,0,0.1571178436279297
3163,0,0,0.1595020294189453
3164,0,0,0.16307830810546875
3165,0,0,0.1609325408935547
3166,3,3,0.16236305236816406
3167,0,0,0.15807151794433594
3168,0,0,0.15783309936523438
3169,0,0,0.1633167266845703
3170,0,0,0.15974044799804688
3171,0,0,0.16188621520996094
3172,0,0,0.1595020294189453
3173,0,0,0.1628398895263672
3174,0,0,0.16450881958007812
3175,0,0,0.1823902130126953
3176,0,0,0.16236305236816406
3177,0,0,0.1614093780517578
3178,0,0,0.1609325408935547
3179,0,0,0.1685619354248047
3180,0,0,0.1633167266845703
3181,2,2,0.1609325408935547
3182,0,0,0.15735626220703125
3183,0,0,0.16188621520996094
3184,0,0,0.16117095947265625
3185,0,0,0.1575946807861328
3186,0,0,0.1609325408935547
3187,0,0,0.15783309936523438
3188,2,2,0.16117095947265625
3189,0,0,0.164031982421875
3190,0,0,0.15878677368164062
3191,0,0,0.15974044799804688
3192,2,2,0.16307830810546875
3193,0,0,0.16355514526367188
3194,0,0,0.16546249389648438
3195,0,0,0.18310546875
3196,0,0,0.16021728515625
3197,1,1,0.16260147094726562
3198,0,0,0.16045570373535156
3199,0,0,0.15807151794433594
3200,0,0,0.16260147094726562
3201,0,0,0.1595020294189453
3202,0,0,0.1628398895263672
3203,0,0,0.16760826110839844
3204,0,0,0.15783309936523438
3205,0,0,0.15926361083984375
3206,0,0,0.16236305236816406
3207,0,0,0.15926361083984375
3208,0,0,0.1595020294189453
3209,0,0,0.15592575073242188
3210,0,0,0.1621246337890625
3211,0,0,0.16188621520996094
3212,0,0,0.1590251922607422
3213,0,0,0.16069412231445312
3214,0,0,0.15974044799804688
3215,0,0,0.17499923706054688
3216,0,0,0.16117095947265625
3217,0,0,0.16427040100097656
3218,0,0,0.15807151794433594
3219,0,0,0.1621246337890625
3220,0,0,0.16164779663085938
3221,0,0,0.1575946807861328
3222,0,0,0.1614093780517578
3223,0,0,0.16045570373535156
3224,0,0,0.16236305236816406
3225,2,2,0.15997886657714844
3226,0,0,0.15974044799804688
3227,0,0,0.1571178436279297
3228,2,2,0.16260147094726562
3229,0,0,0.15783309936523438
3230,0,0,0.1575946807861328
3231,0,0,0.16164779663085938
3232,0,0,0.16021728515625
3233,0,0,0.16260147094726562
3234,0,0,0.15974044799804688
3235,0,0,0.16307830810546875
3236,0,0,0.1614093780517578
3237,0,0,0.15878677368164062
3238,0,0,0.16117095947265625
3239,0,0,0.1609325408935547
3240,0,0,0.1614093780517578
3241,0,0,0.16260147094726562
3242,0,0,0.1633167266845703
3243,0,0,0.1621246337890625
3244,2,2,0.15854835510253906
3245,0,0,0.1571178436279297
3246,0,0,0.16427040100097656
3247,0,0,0.16570091247558594
3248,0,0,0.164031982421875
3249,0,0,0.15735626220703125
3250,2,2,0.1595020294189453
3251,0,0,0.164031982421875
3252,2,2,0.16069412231445312
3253,0,0,0.16450881958007812
3254,0,0,0.15974044799804688
3255,0,0,0.16117095947265625
3256,0,0,0.16069412231445312
3257,0,0,0.1647472381591797
3258,0,0,0.16379356384277344
3259,0,0,0.15878677368164062
3260,0,0,0.1575946807861328
3261,0,0,0.15997886657714844
3262,0,0,0.1583099365234375
3263,0,0,0.16307830810546875
3264,0,0,0.1571178436279297
3265,0,0,0.1659393310546875
3266,0,0,0.16069412231445312
3267,0,0,0.16260147094726562
3268,0,0,0.15854835510253906
3269,0,0,0.1595020294189453
3270,0,0,0.1575946807861328
3271,0,0,0.1571178436279297
3272,0,0,0.15687942504882812
3273,0,0,0.16021728515625
3274,0,0,0.1575946807861328
3275,0,0,0.15687942504882812
3276,0,0,0.17547607421875
3277,0,0,0.16951560974121094
3278,0,0,0.15974044799804688
3279,0,0,0.15807151794433594
3280,0,0,0.1609325408935547
3281,0,0,0.16260147094726562
3282,0,0,0.1583099365234375
3283,0,0,0.1633167266845703
3284,0,0,0.16379356384277344
3285,0,0,0.1556873321533203
3286,0,0,0.16021728515625
3287,0,0,0.16260147094726562
3288,0,0,0.1633167266845703
3289,3,3,0.1621246337890625
3290,0,0,0.15807151794433594
3291,0,0,0.1633167266845703
3292,0,0,0.16188621520996094
3293,0,0,0.1628398895263672
3294,0,0,0.1609325408935547
3295,0,0,0.16164779663085938
3296,0,0,0.18405914306640625
3297,0,0,0.1571178436279297
3298,0,0,0.1595020294189453
3299,0,0,0.16164779663085938
3300,0,0,0.1621246337890625
3301,0,0,0.15783309936523438
3302,0,0,0.15807151794433594
3303,0,0,0.16355514526367188
3304,0,0,0.16736984252929688
3305,0,0,0.18739700317382812
3306,2,2,0.18548965454101562
3307,0,0,0.1900196075439453
3308,0,0,0.1850128173828125
3309,0,0,0.1926422119140625
3310,2,2,0.19669532775878906
3311,1,1,0.2040863037109375
3312,0,0,0.1976490020751953
3313,2,2,0.17690658569335938
3314,0,0,0.21314620971679688
3315,0,0,0.16689300537109375
3316,0,0,0.17189979553222656
3317,0,0,0.1671314239501953
3318,0,0,0.16641616821289062
3319,0,0,0.18930435180664062
3320,0,0,0.17380714416503906
3321,0,0,0.1697540283203125
3322,0,0,0.1671314239501953
3323,0,0,0.1685619354248047
3324,0,0,0.1742839813232422
3325,0,0,0.179290771484375
3326,0,0,0.17523765563964844
3327,0,0,0.19049644470214844
3328,0,0,0.19407272338867188
3329,0,0,0.1838207244873047
3330,0,0,0.18668174743652344
3331,0,0,0.22029876708984375
3332,0,0,0.1926422119140625
3333,0,0,0.18143653869628906
3334,0,0,0.1857280731201172
3335,0,0,0.1914501190185547
3336,0,0,0.1938343048095703
3337,0,0,0.19216537475585938
3338,0,0,0.18215179443359375
3339,0,0,0.171661376953125
3340,0,0,0.1575946807861328
3341,0,0,0.1621246337890625
3342,0,0,0.15854835510253906
3343,2,2,0.1590251922607422
3344,0,0,0.15687942504882812
3345,0,0,0.16188621520996094
3346,0,0,0.18095970153808594
3347,0,0,0.18668174743652344
3348,0,0,0.1678466796875
3349,0,0,0.20074844360351562
3350,0,0,0.16641616821289062
3351,0,0,0.17571449279785156
3352,0,0,0.1811981201171875
3353,0,0,0.18143653869628906
3354,0,0,0.18286705017089844
3355,0,0,0.1800060272216797
3356,0,0,0.1728534698486328
3357,0,0,0.186920166015625
3358,2,2,0.19669532775878906
3359,0,0,0.21457672119140625
3360,0,0,0.1990795135498047
3361,2,2,0.18835067749023438
3362,2,2,0.1811981201171875
3363,0,0,0.186920166015625
3364,0,0,0.18525123596191406
3365,0,0,0.1766681671142578
3366,0,0,0.1957416534423828
3367,0,0,0.17881393432617188
3368,0,0,0.16164779663085938
3369,0,0,0.16117095947265625
3370,0,0,0.16117095947265625
3371,0,0,0.15783309936523438
3372,0,0,0.15735626220703125
3373,0,0,0.16260147094726562
3374,2,2,0.16355514526367188
3375,0,0,0.1595020294189453
3376,0,0,0.16260147094726562
3377,0,0,0.16117095947265625
3378,0,0,0.15735626220703125
3379,0,0,0.16188621520996094
3380,0,0,0.16379356384277344
3381,0,0,0.16236305236816406
3382,0,0,0.16260147094726562
3383,0,0,0.16379356384277344
3384,0,0,0.1614093780517578
3385,0,0,0.19478797912597656
3386,0,0,0.17189979553222656
3387,0,0,0.1621246337890625
3388,0,0,0.16355514526367188
3389,1,1,0.16355514526367188
3390,0,0,0.1595020294189453
3391,0,0,0.1583099365234375
3392,0,0,0.15735626220703125
3393,2,2,0.1595020294189453
3394,0,0,0.16260147094726562
3395,0,0,0.15807151794433594
3396,0,0,0.1571178436279297
3397,0,0,0.16260147094726562
3398,0,0,0.16164779663085938
3399,0,0,0.15807151794433594
3400,0,0,0.15664100646972656
3401,0,0,0.15664100646972656
3402,0,0,0.16164779663085938
3403,0,0,0.1614093780517578
3404,0,0,0.15783309936523438
3405,2,2,0.18477439880371094
3406,2,2,0.16355514526367188
3407,0,0,0.16236305236816406
3408,0,0,0.1590251922607422
3409,0,0,0.16307830810546875
3410,2,2,0.1590251922607422
3411,0,0,0.1571178436279297
3412,0,0,0.15687942504882812
3413,0,0,0.16021728515625
3414,0,0,0.16117095947265625
3415,2,2,0.16164779663085938
3416,0,0,0.1614093780517578
3417,0,0,0.15664100646972656
3418,0,0,0.15664100646972656
3419,0,0,0.15854835510253906
3420,1,0,0.15854835510253906
3421,0,0,0.15783309936523438
3422,0,0,0.15878677368164062
3423,0,0,0.16760826110839844
3424,0,0,0.1595020294189453
3425,0,0,0.1785755157470703
3426,0,0,0.16355514526367188
3427,0,0,0.16236305236816406
3428,0,0,0.16498565673828125
3429,0,0,0.1614093780517578
3430,0,0,0.16999244689941406
3431,2,2,0.16260147094726562
3432,0,0,0.15687942504882812
3433,0,0,0.16689300537109375
3434,2,2,0.15974044799804688
3435,0,0,0.164031982421875
3436,0,0,0.1609325408935547
3437,0,0,0.16164779663085938
3438,0,0,0.1723766326904297
3439,0,0,0.1785755157470703
3440,0,0,0.17547607421875
3441,2,2,0.1697540283203125
3442,0,0,0.17189979553222656
3443,0,0,0.1697540283203125
3444,0,0,0.1659393310546875
3445,0,0,0.17118453979492188
3446,0,0,0.16188621520996094
3447,0,0,0.1628398895263672
3448,0,0,0.16689300537109375
3449,0,0,0.16999244689941406
3450,0,0,0.1823902130126953
3451,0,0,0.1888275146484375
3452,0,0,0.18525123596191406
3453,0,0,0.1811981201171875
3454,0,0,0.17333030700683594
3455,0,0,0.1647472381591797
3456,0,0,0.15854835510253906
3457,0,0,0.16117095947265625
3458,0,0,0.16427040100097656
3459,0,0,0.1621246337890625
3460,0,0,0.1633167266845703
3461,0,0,0.16188621520996094
3462,0,0,0.164031982421875
3463,0,0,0.1876354217529297
3464,0,0,0.1709461212158203
3465,0,0,0.15687942504882812
3466,0,0,0.16999244689941406
3467,0,0,0.17499923706054688
3468,2,2,0.17023086547851562
3469,0,0,0.16260147094726562
3470,0,0,0.15735626220703125
3471,0,0,0.16570091247558594
3472,2,2,0.16999244689941406
3473,0,0,0.15687942504882812
3474,0,0,0.16117095947265625
3475,0,0,0.16188621520996094
3476,0,0,0.15854835510253906
3477,0,0,0.1556873321533203
3478,0,0,0.1571178436279297
3479,0,0,0.16117095947265625
3480,0,0,0.1609325408935547
3481,0,0,0.15807151794433594
3482,0,0,0.15664100646972656
3483,0,0,0.18668174743652344
3484,0,0,0.1735687255859375
3485,0,0,0.16546249389648438
3486,0,0,0.16379356384277344
3487,0,0,0.17142295837402344
3488,0,0,0.1614093780517578
3489,0,0,0.16045570373535156
3490,0,0,0.1583099365234375
3491,0,0,0.1583099365234375
3492,0,0,0.1628398895263672
3493,0,0,0.15878677368164062
3494,0,0,0.16808509826660156
3495,0,0,0.17499923706054688
3496,0,0,0.16808509826660156
3497,2,2,0.1614093780517578
3498,0,0,0.1583099365234375
3499,0,0,0.16832351684570312
3500,0,0,0.17023086547851562
3501,0,0,0.16880035400390625
3502,0,0,0.16069412231445312
3503,0,0,0.19550323486328125
3504,0,0,0.17189979553222656
3505,0,0,0.1614093780517578
3506,0,0,0.1671314239501953
3507,0,0,0.16379356384277344
3508,0,0,0.15878677368164062
3509,1,1,0.1614093780517578
3510,0,0,0.15974044799804688
3511,0,0,0.164031982421875
3512,0,0,0.1583099365234375
3513,0,0,0.16069412231445312
3514,2,0,0.16260147094726562
3515,0,0,0.16498565673828125
3516,0,0,0.1800060272216797
3517,0,0,0.1766681671142578
3518,0,0,0.164031982421875
3519,0,0,0.1609325408935547
3520,0,0,0.16427040100097656
3521,0,0,0.1652240753173828
3522,2,2,0.2923011779785156
3523,0,0,0.1633167266845703
3524,0,0,0.15425682067871094
3525,0,0,0.1513957977294922
3526,0,0,0.16951560974121094
3527,0,0,0.16880035400390625
3528,0,0,0.15616416931152344
3529,0,0,0.16355514526367188
3530,3,3,0.16236305236816406
3531,0,0,0.1575946807861328
3532,2,2,0.16188621520996094
3533,0,0,0.16427040100097656
3534,2,2,0.16069412231445312
3535,0,0,0.15997886657714844
3536,0,0,0.16570091247558594
3537,0,0,0.16164779663085938
3538,0,0,0.16570091247558594
3539,0,0,0.18453598022460938
3540,0,0,0.1697540283203125
3541,0,0,0.19502639770507812
3542,0,0,0.16808509826660156
3543,0,0,0.16164779663085938
3544,0,0,0.15926361083984375
3545,0,0,0.1609325408935547
3546,2,2,0.15878677368164062
3547,0,0,0.1571178436279297
3548,0,0,0.16069412231445312
3549,0,0,0.15687942504882812
3550,0,0,0.1614093780517578
3551,0,0,0.15664100646972656
3552,0,0,0.15974044799804688
3553,2,2,0.1590251922607422
3554,0,0,0.16355514526367188
3555,0,0,0.16069412231445312
3556,2,2,0.16164779663085938
3557,0,0,0.16164779663085938
3558,0,0,0.16188621520996094
3559,0,0,0.1614093780517578
3560,0,0,0.1575946807861328
3561,0,0,0.1900196075439453
3562,0,0,0.1761913299560547
3563,2,2,0.17309188842773438
3564,0,0,0.16999244689941406
3565,0,0,0.1575946807861328
3566,0,0,0.16307830810546875
3567,0,0,0.16069412231445312
3568,2,2,0.15926361083984375
3569,0,0,0.1571178436279297
3570,0,0,0.15664100646972656
3571,0,0,0.16188621520996094
3572,0,0,0.16069412231445312
3573,0,0,0.15783309936523438
3574,0,0,0.16164779663085938
3575,0,0,0.15616416931152344
3576,0,0,0.16927719116210938
3577,2,2,0.18143653869628906
3578,0,0,0.1728534698486328
3579,0,0,0.16379356384277344
3580,0,0,0.15974044799804688
3581,1,0,0.19359588623046875
3582,0,0,0.1614093780517578
3583,0,0,0.1633167266845703
3584,1,1,0.16021728515625
3585,0,0,0.1690387725830078
3586,0,0,0.16355514526367188
3587,2,2,0.16260147094726562
3588,0,0,0.16021728515625
3589,0,0,0.15735626220703125
3590,0,0,0.1621246337890625
3591,0,0,0.15687942504882812
3592,0,0,0.15735626220703125
3593,0,0,0.1614093780517578
3594,2,2,0.16260147094726562
3595,0,0,0.15878677368164062
3596,0,0,0.1609325408935547
3597,0,0,0.1575946807861328
3598,0,0,0.156402587890625
3599,2,2,0.17213821411132812
3600,0,0,0.16570091247558594
3601,0,0,0.20575523376464844
3602,0,0,0.16689300537109375
3603,0,0,0.1614093780517578
3604,0,0,0.16045570373535156
3605,0,0,0.16117095947265625
3606,0,0,0.16188621520996094
3607,0,0,0.16260147094726562
3608,0,0,0.16260147094726562
3609,0,0,0.1609325408935547
3610,0,0,0.16260147094726562
3611,3,2,0.16355514526367188
3612,0,0,0.1583099365234375
3613,2,2,0.1609325408935547
3614,2,2,0.1590251922607422
3615,0,0,0.15926361083984375
3616,0,0,0.1571178436279297
3617,0,0,0.15807151794433594
3618,0,0,0.1571178436279297
3619,0,0,0.1628398895263672
3620,0,0,0.16617774963378906
3621,0,0,0.24318695068359375
3622,0,0,0.16427040100097656
3623,0,0,0.16164779663085938
3624,0,0,0.1685619354248047
3625,0,0,0.17213821411132812
3626,0,0,0.16307830810546875
3627,0,0,0.1633167266845703
3628,0,0,0.15592575073242188
3629,1,1,0.15854835510253906
3630,0,0,0.16069412231445312
3631,0,0,0.1575946807861328
3632,0,0,0.1575946807861328
3633,0,0,0.16164779663085938
3634,0,0,0.16307830810546875
3635,2,2,0.16045570373535156
3636,0,0,0.16021728515625
3637,2,2,0.15974044799804688
3638,0,0,0.16164779663085938
3639,0,0,0.18477439880371094
3640,0,0,0.209808349609375
3641,0,0,0.16450881958007812
3642,0,0,0.16188621520996094
3643,0,0,0.16021728515625
3644,0,0,0.16307830810546875
3645,0,0,0.16450881958007812
3646,0,0,0.156402587890625
3647,0,0,0.15735626220703125
3648,0,0,0.15807151794433594
3649,0,0,0.17547607421875
3650,0,0,0.1614093780517578
3651,0,0,0.15735626220703125
3652,0,0,0.16021728515625
3653,2,2,0.16164779663085938
3654,0,0,0.15926361083984375
3655,0,0,0.17333030700683594
3656,0,0,0.15854835510253906
3657,2,2,0.15783309936523438
3658,0,0,0.15807151794433594
3659,0,0,0.15854835510253906
3660,0,0,0.22459030151367188
3661,0,0,0.16236305236816406
3662,0,0,0.15783309936523438
3663,0,0,0.1647472381591797
3664,0,0,0.16880035400390625
3665,0,0,0.16450881958007812
3666,0,0,0.1609325408935547
3667,0,0,0.16307830810546875
3668,0,0,0.16379356384277344
3669,0,0,0.16045570373535156
3670,0,0,0.15783309936523438
3671,0,0,0.1590251922607422
3672,1,1,0.15783309936523438
3673,0,0,0.16045570373535156
3674,0,0,0.15854835510253906
3675,0,0,0.16307830810546875
3676,0,0,0.16164779663085938
3677,0,0,0.15664100646972656
3678,0,0,0.1609325408935547
3679,0,0,0.16307830810546875
3680,0,0,0.16808509826660156
3681,0,0,0.164031982421875
3682,0,0,0.1780986785888672
3683,0,0,0.16689300537109375
3684,0,0,0.16164779663085938
3685,1,1,0.16546249389648438
3686,0,0,0.16236305236816406
3687,0,0,0.164031982421875
3688,0,0,0.15878677368164062
3689,0,0,0.16117095947265625
3690,0,0,0.1647472381591797
3691,0,0,0.16355514526367188
3692,0,0,0.16117095947265625
3693,0,0,0.1690387725830078
3694,0,0,0.17786026000976562
3695,0,0,0.1811981201171875
3696,0,0,0.16546249389648438
3697,0,0,0.16117095947265625
3698,0,0,0.1595020294189453
3699,0,0,0.19812583923339844
3700,3,3,0.1666545867919922
3701,0,0,0.16164779663085938
3702,0,0,0.15997886657714844
3703,0,0,0.16307830810546875
3704,0,0,0.16307830810546875
3705,0,0,0.16117095947265625
3706,0,0,0.15974044799804688
3707,0,0,0.1595020294189453
3708,0,0,0.15854835510253906
3709,0,0,0.16021728515625
3710,0,0,0.15974044799804688
3711,0,0,0.15735626220703125
3712,0,0,0.15974044799804688
3713,0,0,0.16021728515625
3714,0,0,0.15735626220703125
3715,0,0,0.16427040100097656
3716,0,0,0.16069412231445312
3717,0,0,0.1575946807861328
3718,2,2,0.15997886657714844
3719,0,0,0.1862049102783203
3720,0,0,0.1633167266845703
3721,0,0,0.1628398895263672
3722,0,0,0.16260147094726562
3723,0,0,0.15878677368164062
3724,0,0,0.15926361083984375
3725,0,0,0.16188621520996094
3726,0,0,0.164031982421875
3727,0,0,0.1633167266845703
3728,0,0,0.16117095947265625
3729,0,0,0.15974044799804688
3730,0,0,0.1575946807861328
3731,0,0,0.1628398895263672
3732,0,0,0.16164779663085938
3733,0,0,0.16021728515625
3734,0,0,0.15783309936523438
3735,0,0,0.15616416931152344
3736,0,0,0.16641616821289062
3737,0,0,0.16117095947265625
3738,0,0,0.1571178436279297
3739,0,0,0.1876354217529297
3740,0,0,0.16021728515625
3741,0,0,0.16045570373535156
3742,0,0,0.16069412231445312
3743,0,0,0.17118453979492188
3744,0,0,0.1766681671142578
3745,0,0,0.1697540283203125
3746,0,0,0.16045570373535156
3747,0,0,0.16021728515625
3748,0,0,0.16260147094726562
3749,0,0,0.15997886657714844
3750,0,0,0.16260147094726562
3751,0,0,0.15854835510253906
3752,0,0,0.156402587890625
3753,0,0,0.16164779663085938
3754,2,2,0.1590251922607422
3755,0,0,0.1571178436279297
3756,0,0,0.16498565673828125
3757,0,0,0.15974044799804688
3758,0,0,0.17070770263671875
3759,0,0,0.1919269561767578
3760,2,2,0.1628398895263672
3761,0,0,0.16045570373535156
3762,0,0,0.16045570373535156
3763,0,0,0.16164779663085938
3764,0,0,0.15854835510253906
3765,0,0,0.16427040100097656
3766,0,0,0.15807151794433594
3767,0,0,0.16570091247558594
3768,0,0,0.1659393310546875
3769,0,0,0.1659393310546875
3770,0,0,0.17595291137695312
3771,0,0,0.1595020294189453
3772,0,0,0.15616416931152344
3773,0,0,0.16164779663085938
3774,0,0,0.16450881958007812
3775,0,0,0.16021728515625
3776,1,1,0.1709461212158203
3777,0,0,0.164031982421875
3778,0,0,0.16641616821289062
3779,0,0,0.17952919006347656
3780,0,0,0.16164779663085938
3781,0,0,0.15735626220703125
3782,0,0,0.16045570373535156
3783,0,0,0.16546249389648438
3784,0,0,0.16450881958007812
3785,0,0,0.1609325408935547
3786,0,0,0.1652240753173828
3787,0,0,0.1666545867919922
3788,0,0,0.1571178436279297
3789,2,2,0.16164779663085938
3790,0,0,0.1678466796875
3791,0,0,0.18334388732910156
3792,0,0,0.1811981201171875
3793,0,0,0.1780986785888672
3794,0,0,0.16880035400390625
3795,0,0,0.16260147094726562
3796,0,0,0.1590251922607422
3797,0,0,0.1583099365234375
3798,0,0,0.2193450927734375
3799,0,0,0.16546249389648438
3800,0,0,0.16188621520996094
3801,0,0,0.16307830810546875
3802,0,0,0.16117095947265625
3803,0,0,0.1583099365234375
3804,0,0,0.1628398895263672
3805,0,0,0.1595020294189453
3806,0,0,0.15997886657714844
3807,0,0,0.15783309936523438
3808,0,0,0.16021728515625
3809,1,1,0.15735626220703125
3810,0,0,0.16236305236816406
3811,2,2,0.16236305236816406
3812,0,0,0.1590251922607422
3813,0,0,0.1621246337890625
3814,0,0,0.1621246337890625
3815,0,0,0.16236305236816406
3816,0,0,0.1628398895263672
3817,0,0,0.16188621520996094
3818,0,0,0.1900196075439453
3819,0,0,0.1628398895263672
3820,0,0,0.16546249389648438
3821,0,0,0.16021728515625
3822,0,0,0.16117095947265625
3823,0,0,0.18095970153808594
3824,1,1,0.16951560974121094
3825,2,2,0.1773834228515625
3826,0,0,0.1747608184814453
3827,0,0,0.1666545867919922
3828,0,0,0.16379356384277344
3829,0,0,0.1671314239501953
3830,0,0,0.1628398895263672
3831,0,0,0.16355514526367188
3832,0,0,0.1571178436279297
3833,0,0,0.1571178436279297
3834,0,0,0.15735626220703125
3835,0,0,0.16546249389648438
3836,0,0,0.16045570373535156
3837,0,0,0.18858909606933594
3838,1,2,0.16164779663085938
3839,0,0,0.1595020294189453
3840,0,0,0.17070770263671875
3841,0,0,0.186920166015625
3842,0,0,0.17595291137695312
3843,0,0,0.16188621520996094
3844,0,0,0.1595020294189453
3845,0,0,0.1571178436279297
3846,0,0,0.16808509826660156
3847,0,0,0.18072128295898438
3848,0,2,0.19073486328125
3849,0,0,0.19025802612304688
3850,0,0,0.18167495727539062
3851,0,0,0.18358230590820312
3852,0,0,0.18644332885742188
3853,0,0,0.20170211791992188
3854,0,0,0.20503997802734375
3855,0,0,0.18978118896484375
3856,0,0,0.16260147094726562
3857,0,0,0.1735687255859375
3858,0,0,0.18095970153808594
3859,0,0,0.17404556274414062
3860,2,2,0.17023086547851562
3861,0,0,0.1652240753173828
3862,0,0,0.16450881958007812
3863,0,0,0.1647472381591797
3864,0,0,0.1590251922607422
3865,3,3,0.16069412231445312
3866,0,0,0.1595020294189453
3867,0,0,0.16117095947265625
3868,0,0,0.16260147094726562
3869,0,0,0.15783309936523438
3870,0,0,0.16260147094726562
3871,0,0,0.1575946807861328
3872,0,0,0.16260147094726562
3873,0,0,0.202178955078125
3874,0,0,0.18405914306640625
3875,0,0,0.1690387725830078
3876,0,0,0.1709461212158203
3877,0,0,0.1823902130126953
3878,0,0,0.16927719116210938
3879,0,0,0.16260147094726562
3880,0,0,0.16641616821289062
3881,0,0,0.1621246337890625
3882,2,2,0.16260147094726562
3883,0,0,0.16236305236816406
3884,0,0,0.15974044799804688
3885,0,0,0.1800060272216797
3886,0,0,0.1761913299560547
3887,0,0,0.16450881958007812
3888,0,0,0.15854835510253906
3889,0,0,0.15783309936523438
3890,0,0,0.1556873321533203
3891,0,0,0.1628398895263672
3892,0,0,0.1976490020751953
3893,0,0,0.16546249389648438
3894,0,0,0.15783309936523438
3895,0,0,0.16236305236816406
3896,0,0,0.1583099365234375
3897,0,0,0.1633167266845703
3898,2,2,0.19097328186035156
3899,0,0,0.1938343048095703
3900,2,2,0.17595291137695312
3901,0,0,0.16641616821289062
3902,0,0,0.15974044799804688
3903,0,0,0.1652240753173828
3904,0,0,0.15854835510253906
3905,2,2,0.16188621520996094
3906,0,0,0.15664100646972656
3907,2,2,0.1595020294189453
3908,0,0,0.16260147094726562
3909,0,0,0.1614093780517578
3910,0,0,0.15592575073242188
3911,0,0,0.18358230590820312
3912,0,0,0.17571449279785156
3913,0,0,0.1590251922607422
3914,0,0,0.1647472381591797
3915,0,0,0.1595020294189453
3916,0,0,0.1614093780517578
3917,0,0,0.16832351684570312
3918,0,0,0.16880035400390625
3919,0,0,0.1621246337890625
3920,0,0,0.16117095947265625
3921,0,0,0.15544891357421875
3922,0,0,0.1614093780517578
3923,0,0,0.15783309936523438
3924,0,0,0.15997886657714844
3925,0,0,0.15974044799804688
3926,2,2,0.16570091247558594
3927,0,0,0.1659393310546875
3928,0,0,0.15974044799804688
3929,0,0,0.1590251922607422
3930,0,0,0.16498565673828125
3931,0,0,0.20885467529296875
3932,0,0,0.17881393432617188
3933,0,0,0.17189979553222656
3934,0,0,0.1671314239501953
3935,0,0,0.16021728515625
3936,0,0,0.16498565673828125
3937,0,0,0.1621246337890625
3938,0,0,0.16164779663085938
3939,1,0,0.16117095947265625
3940,1,1,0.16069412231445312
3941,0,0,0.15854835510253906
3942,0,0,0.16069412231445312
3943,0,0,0.1628398895263672
3944,0,0,0.15807151794433594
3945,0,0,0.17881393432617188
3946,0,0,0.18453598022460938
3947,0,0,0.1633167266845703
3948,0,0,0.15926361083984375
3949,0,0,0.1647472381591797
3950,0,0,0.18978118896484375
3951,0,0,0.16498565673828125
3952,0,0,0.16450881958007812
3953,0,0,0.16045570373535156
3954,0,0,0.15687942504882812
3955,0,0,0.16021728515625
3956,0,0,0.16355514526367188
3957,0,0,0.15854835510253906
3958,0,0,0.1614093780517578
3959,0,0,0.1723766326904297
3960,0,0,0.1659393310546875
3961,0,0,0.15926361083984375
3962,0,0,0.16641616821289062
3963,0,0,0.171661376953125
3964,0,0,0.15854835510253906
3965,0,0,0.1590251922607422
3966,0,0,0.1583099365234375
3967,0,0,0.15687942504882812
3968,0,0,0.1633167266845703
3969,0,0,0.1652240753173828
3970,0,0,0.1876354217529297
3971,0,0,0.1652240753173828
3972,0,0,0.164031982421875
3973,0,0,0.16164779663085938
3974,0,0,0.1678466796875
3975,0,0,0.17642974853515625
3976,0,0,0.1838207244873047
3977,0,0,0.17452239990234375
3978,0,0,0.15926361083984375
3979,0,0,0.16045570373535156
3980,0,0,0.16021728515625
3981,0,0,0.15783309936523438
3982,0,0,0.1621246337890625
3983,0,0,0.16427040100097656
3984,0,0,0.16164779663085938
3985,0,0,0.1583099365234375
3986,0,0,0.17118453979492188
3987,1,0,0.15926361083984375
3988,1,1,0.1633167266845703
3989,0,0,0.16546249389648438
3990,0,0,0.1704692840576172
3991,0,0,0.16951560974121094
3992,0,0,0.16236305236816406
3993,0,0,0.16355514526367188
3994,0,0,0.16069412231445312
3995,0,0,0.16355514526367188
3996,2,2,0.16021728515625
3997,2,2,0.15926361083984375
3998,0,0,0.1614093780517578
3999,0,0,0.16379356384277344
4000,0,0,0.15735626220703125
4001,0,0,0.16236305236816406
4002,0,0,0.16188621520996094
4003,0,0,0.1595020294189453
4004,0,0,0.15783309936523438
4005,0,0,0.15687942504882812
4006,0,0,0.16021728515625
4007,0,0,0.1583099365234375
4008,0,0,0.1697540283203125
4009,0,0,0.1919269561767578
4010,2,2,0.1766681671142578
4011,0,0,0.16951560974121094
4012,0,0,0.15997886657714844
4013,0,0,0.1785755157470703
4014,0,0,0.16927719116210938
4015,0,0,0.1666545867919922
4016,0,0,0.15616416931152344
4017,2,2,0.1709461212158203
4018,0,0,0.1633167266845703
4019,1,1,0.15616416931152344
4020,0,0,0.1633167266845703
4021,0,0,0.16164779663085938
4022,0,0,0.164031982421875
4023,0,0,0.15997886657714844
4024,0,0,0.15997886657714844
4025,0,0,0.16236305236816406
4026,0,0,0.16498565673828125
4027,0,0,0.16045570373535156
4028,0,0,0.1575946807861328
4029,0,0,0.1983642578125
4030,0,0,0.1895427703857422
4031,0,0,0.1800060272216797
4032,0,0,0.17023086547851562
4033,2,2,0.16760826110839844
4034,0,0,0.1652240753173828
4035,0,0,0.16164779663085938
4036,0,0,0.16355514526367188
4037,0,0,0.16450881958007812
4038,0,0,0.1575946807861328
4039,0,0,0.16117095947265625
4040,0,0,0.1621246337890625
4041,0,0,0.16307830810546875
4042,2,2,0.1614093780517578
4043,0,0,0.16188621520996094
4044,0,0,0.15807151794433594
4045,0,0,0.15974044799804688
4046,0,0,0.16021728515625
4047,2,2,0.1590251922607422
4048,0,0,0.1888275146484375
4049,0,0,0.16546249389648438
4050,0,0,0.16355514526367188
4051,0,0,0.1628398895263672
4052,0,0,0.1583099365234375
4053,0,0,0.16260147094726562
4054,0,0,0.16069412231445312
4055,0,0,0.1628398895263672
4056,2,2,0.1633167266845703
4057,0,0,0.16164779663085938
4058,0,0,0.1621246337890625
4059,0,0,0.1571178436279297
4060,0,0,0.15974044799804688
4061,0,0,0.16355514526367188
4062,0,0,0.16427040100097656
4063,0,0,0.16164779663085938
4064,0,0,0.15783309936523438
4065,0,0,0.18167495727539062
4066,1,0,0.17213821411132812
4067,0,0,0.1621246337890625
4068,0,0,0.19311904907226562
4069,0,0,0.1685619354248047
4070,0,0,0.16069412231445312
4071,2,2,0.16427040100097656
4072,0,0,0.15807151794433594
4073,0,0,0.15807151794433594
4074,0,0,0.16307830810546875
4075,0,0,0.16260147094726562
4076,0,0,0.15854835510253906
4077,0,0,0.15997886657714844
4078,0,0,0.15735626220703125
4079,0,0,0.16021728515625
4080,0,0,0.1609325408935547
4081,0,0,0.16021728515625
4082,0,0,0.16307830810546875
4083,0,0,0.16355514526367188
4084,1,1,0.16427040100097656
4085,0,0,0.16069412231445312
4086,0,0,0.16307830810546875
4087,0,0,0.1678466796875
4088,0,0,0.1952648162841797
4089,0,0,0.16736984252929688
4090,0,0,0.16498565673828125
4091,0,0,0.15926361083984375
4092,0,0,0.15783309936523438
4093,0,0,0.1609325408935547
4094,0,0,0.16188621520996094
4095,0,0,0.16117095947265625
4096,0,0,0.16164779663085938
4097,0,0,0.1583099365234375
4098,0,0,0.1628398895263672
4099,0,0,0.16236305236816406
4100,0,0,0.1583099365234375
4101,0,0,0.15807151794433594
4102,0,0,0.16117095947265625
4103,0,0,0.16164779663085938
4104,0,0,0.1609325408935547
4105,0,0,0.15687942504882812
4106,0,0,0.16045570373535156
4107,3,3,0.16117095947265625
4108,0,0,0.194549560546875
4109,0,0,0.1614093780517578
4110,0,0,0.15926361083984375
4111,0,0,0.16069412231445312
4112,0,0,0.15687942504882812
4113,2,2,0.16164779663085938
4114,0,0,0.16045570373535156
4115,0,0,0.16164779663085938
4116,0,0,0.16021728515625
4117,0,0,0.1575946807861328
4118,0,0,0.1614093780517578
4119,2,2,0.16045570373535156
4120,0,0,0.15783309936523438
4121,0,0,0.1590251922607422
4122,0,0,0.15974044799804688
4123,0,0,0.1595020294189453
4124,0,0,0.1575946807861328
4125,0,0,0.1583099365234375
4126,0,0,0.1621246337890625
4127,0,0,0.16236305236816406
4128,0,0,0.18358230590820312
4129,0,0,0.1685619354248047
4130,1,0,0.16498565673828125
4131,2,2,0.16236305236816406
4132,2,2,0.1583099365234375
4133,2,2,0.15854835510253906
4134,0,0,0.16236305236816406
4135,0,0,0.15783309936523438
4136,1,0,0.1685619354248047
4137,0,0,0.1583099365234375
4138,0,0,0.15997886657714844
4139,0,0,0.16379356384277344
4140,2,2,0.15926361083984375
4141,0,0,0.16260147094726562
4142,0,0,0.15664100646972656
4143,0,0,0.16045570373535156
4144,0,0,0.1614093780517578
4145,0,0,0.1628398895263672
4146,0,0,0.1614093780517578
4147,0,0,0.1621246337890625
4148,0,0,0.179290771484375
4149,0,0,0.1628398895263672
4150,0,0,0.16069412231445312
4151,0,0,0.16164779663085938
4152,0,0,0.164031982421875
4153,0,0,0.1575946807861328
4154,0,0,0.15926361083984375
4155,0,0,0.15687942504882812
4156,0,0,0.15735626220703125
4157,0,0,0.1590251922607422
4158,0,0,0.1621246337890625
4159,0,0,0.1728534698486328
4160,0,0,0.16021728515625
4161,0,0,0.16546249389648438
4162,0,0,0.15878677368164062
4163,0,0,0.16427040100097656
4164,2,2,0.1583099365234375
4165,0,0,0.16117095947265625
4166,0,0,0.1575946807861328
4167,0,0,0.16021728515625
4168,0,0,0.17976760864257812
4169,0,0,0.16164779663085938
4170,0,0,0.15807151794433594
4171,0,0,0.15664100646972656
4172,0,0,0.15807151794433594
4173,2,2,0.16450881958007812
4174,0,0,0.16450881958007812
4175,0,0,0.16427040100097656
4176,0,0,0.16355514526367188
4177,0,0,0.15735626220703125
4178,0,0,0.1571178436279297
4179,0,0,0.16045570373535156
4180,0,0,0.1614093780517578
4181,0,0,0.1590251922607422
4182,0,0,0.15926361083984375
4183,0,0,0.15783309936523438
4184,0,0,0.15974044799804688
4185,0,0,0.16307830810546875
4186,0,0,0.16260147094726562
4187,0,0,0.15807151794433594
4188,0,0,0.1595020294189453
4189,0,0,0.16117095947265625
4190,2,2,0.16307830810546875
4191,0,0,0.16236305236816406
4192,0,0,0.1583099365234375
4193,2,2,0.1595020294189453
4194,0,0,0.16069412231445312
4195,0,0,0.1590251922607422
4196,0,0,0.1621246337890625
4197,0,0,0.16021728515625
4198,0,0,0.15997886657714844
4199,0,0,0.15783309936523438
4200,0,0,0.1614093780517578
4201,0,0,0.1583099365234375
4202,0,0,0.16164779663085938
4203,0,0,0.16188621520996094
4204,0,0,0.1609325408935547
4205,0,0,0.15878677368164062
4206,0,0,0.16164779663085938
4207,0,0,0.1590251922607422
4208,0,0,0.16260147094726562
4209,0,0,0.1766681671142578
4210,0,0,0.15926361083984375
4211,0,0,0.15926361083984375
4212,0,0,0.16427040100097656
4213,0,0,0.15687942504882812
4214,0,0,0.16117095947265625
4215,0,0,0.1609325408935547
4216,0,0,0.15616416931152344
4217,0,0,0.17213821411132812
4218,0,0,0.164031982421875
4219,0,0,0.16069412231445312
4220,0,0,0.156402587890625
4221,0,0,0.16045570373535156
4222,0,0,0.1614093780517578
4223,0,0,0.15807151794433594
4224,0,0,0.1590251922607422
4225,0,0,0.16021728515625
4226,0,0,0.15997886657714844
4227,1,0,0.15878677368164062
4228,0,0,0.1614093780517578
4229,0,0,0.18453598022460938
4230,0,0,0.15974044799804688
4231,0,0,0.16188621520996094
4232,0,0,0.16164779663085938
4233,0,0,0.16045570373535156
4234,0,0,0.16617774963378906
4235,0,0,0.1628398895263672
4236,0,0,0.16021728515625
4237,0,0,0.16045570373535156
4238,0,0,0.1609325408935547
4239,0,0,0.16164779663085938
4240,1,1,0.1575946807861328
4241,0,0,0.16188621520996094
4242,0,0,0.164031982421875
4243,0,0,0.16450881958007812
4244,0,0,0.1621246337890625
