,label,pred,exec_time_ms
0,0,0,0.5178451538085938
1,0,0,0.1780986785888672
2,1,1,0.16808509826660156
3,0,0,0.16450881958007812
4,2,2,0.16117095947265625
5,2,2,0.1647472381591797
6,0,0,0.16188621520996094
7,0,0,0.1609325408935547
8,0,0,0.1628398895263672
9,0,0,0.2319812774658203
10,0,0,0.16880035400390625
11,0,0,0.16498565673828125
12,0,0,0.3161430358886719
13,0,0,0.18906593322753906
14,0,0,0.2624988555908203
15,3,3,0.17595291137695312
16,0,0,0.16641616821289062
17,0,0,0.16307830810546875
18,2,2,0.16236305236816406
19,1,1,0.16379356384277344
20,0,0,0.16498565673828125
21,0,0,0.16260147094726562
22,0,0,0.16617774963378906
23,2,2,0.164031982421875
24,0,0,0.16188621520996094
25,0,0,0.16617774963378906
26,0,0,0.16498565673828125
27,0,0,0.194549560546875
28,0,0,0.16760826110839844
29,0,0,0.16236305236816406
30,0,0,0.164031982421875
31,0,0,0.1647472381591797
32,0,0,0.17714500427246094
33,0,0,0.17571449279785156
34,0,0,0.17452239990234375
35,0,0,0.16379356384277344
36,0,0,0.16307830810546875
37,0,0,0.16188621520996094
38,0,0,0.16045570373535156
39,0,0,0.16379356384277344
40,0,0,0.1609325408935547
41,0,0,0.16379356384277344
42,2,2,0.1647472381591797
43,0,0,0.1614093780517578
44,0,0,0.16236305236816406
45,0,0,0.16379356384277344
46,0,0,0.16355514526367188
47,0,0,0.18286705017089844
48,0,0,0.16546249389648438
49,0,0,0.16069412231445312
50,0,0,0.1609325408935547
51,0,0,0.15997886657714844
52,0,0,0.1652240753173828
53,0,0,0.16689300537109375
54,0,0,0.1633167266845703
55,0,0,0.15997886657714844
56,0,0,0.1621246337890625
57,0,0,0.16045570373535156
58,0,0,0.186920166015625
59,0,0,0.16951560974121094
60,0,0,0.16689300537109375
61,0,0,0.16236305236816406
62,2,2,0.1621246337890625
63,0,0,0.1621246337890625
64,0,0,0.16188621520996094
65,0,0,0.16164779663085938
66,0,0,0.2796649932861328
67,0,0,0.1773834228515625
68,1,1,0.16307830810546875
69,0,0,0.16307830810546875
70,0,0,0.16260147094726562
71,0,0,0.16498565673828125
72,0,0,0.16117095947265625
73,0,0,0.164031982421875
74,0,0,0.16450881958007812
75,0,0,0.15974044799804688
76,0,0,0.1633167266845703
77,1,1,0.1621246337890625
78,0,0,0.16069412231445312
79,0,0,0.1583099365234375
80,0,0,0.16307830810546875
81,0,0,0.1652240753173828
82,1,1,0.164031982421875
83,0,0,0.15997886657714844
84,0,0,0.15997886657714844
85,0,0,0.16021728515625
86,0,0,0.18715858459472656
87,0,0,0.16570091247558594
88,0,0,0.1633167266845703
89,0,0,0.16379356384277344
90,0,0,0.1609325408935547
91,0,0,0.1614093780517578
92,0,0,0.2818107604980469
93,0,0,0.16927719116210938
94,0,0,0.16641616821289062
95,0,0,0.24700164794921875
96,1,1,0.16689300537109375
97,0,0,0.1671314239501953
98,0,0,0.16045570373535156
99,0,0,0.1609325408935547
100,2,2,0.16427040100097656
101,0,0,0.1621246337890625
102,0,0,0.16689300537109375
103,0,0,0.164031982421875
104,0,0,0.16188621520996094
105,0,0,0.1633167266845703
106,0,0,0.16689300537109375
107,2,2,0.1647472381591797
108,0,0,0.1621246337890625
109,0,0,0.16045570373535156
110,0,0,0.16450881958007812
111,0,0,0.16021728515625
112,0,0,0.1647472381591797
113,0,0,0.16641616821289062
114,0,0,0.16021728515625
115,0,0,0.16355514526367188
116,0,0,0.16045570373535156
117,0,0,0.1633167266845703
118,0,0,0.1652240753173828
119,0,0,0.16069412231445312
120,0,0,0.15997886657714844
121,0,0,0.1590251922607422
122,0,0,0.15878677368164062
123,0,0,0.16379356384277344
124,0,0,0.19121170043945312
125,0,0,0.16927719116210938
126,0,0,0.1666545867919922
127,0,0,0.16307830810546875
128,0,0,0.16307830810546875
129,0,0,0.16164779663085938
130,0,0,0.15997886657714844
131,0,0,0.16355514526367188
132,0,0,0.16307830810546875
133,0,0,0.16427040100097656
134,0,0,0.16117095947265625
135,0,0,0.16379356384277344
136,0,0,0.16188621520996094
137,0,0,0.16307830810546875
138,0,0,0.1628398895263672
139,0,0,0.16188621520996094
140,0,0,0.1628398895263672
141,0,0,0.15926361083984375
142,0,0,0.16164779663085938
143,0,0,0.1633167266845703
144,0,0,0.18143653869628906
145,0,0,0.1647472381591797
146,0,0,0.16427040100097656
147,1,1,0.164031982421875
148,0,0,0.16045570373535156
149,0,0,0.1614093780517578
150,0,0,0.15997886657714844
151,0,0,0.164031982421875
152,0,0,0.16570091247558594
153,0,0,0.16355514526367188
154,0,0,0.1652240753173828
155,0,0,0.16546249389648438
156,0,0,0.16307830810546875
157,0,0,0.16117095947265625
158,0,0,0.1595020294189453
159,0,0,0.1621246337890625
160,0,0,0.1595020294189453
161,0,0,0.1614093780517578
162,0,0,0.1628398895263672
163,0,0,0.164031982421875
164,0,3,0.1823902130126953
165,0,0,0.16498565673828125
166,0,0,0.16188621520996094
167,0,0,0.16260147094726562
168,0,0,0.16427040100097656
169,0,0,0.1609325408935547
170,0,0,0.16379356384277344
171,0,0,0.1621246337890625
172,0,0,0.16236305236816406
173,0,0,0.1609325408935547
174,2,2,0.28252601623535156
175,0,0,0.16808509826660156
176,0,0,0.1628398895263672
177,0,0,0.2498626708984375
178,0,0,0.1628398895263672
179,0,0,0.16355514526367188
180,0,0,0.16260147094726562
181,0,0,0.16021728515625
182,2,2,0.16188621520996094
183,0,0,0.18525123596191406
184,0,0,0.1628398895263672
185,0,0,0.16188621520996094
186,0,0,0.16427040100097656
187,0,0,0.16379356384277344
188,0,0,0.16188621520996094
189,0,0,0.16307830810546875
190,0,0,0.1609325408935547
191,1,1,0.16641616821289062
192,0,0,0.16236305236816406
193,0,0,0.16045570373535156
194,0,0,0.16021728515625
195,0,0,0.15974044799804688
196,0,0,0.16188621520996094
197,0,0,0.16117095947265625
198,0,0,0.1621246337890625
199,2,2,0.16045570373535156
200,0,0,0.1614093780517578
201,0,0,0.1590251922607422
202,0,0,0.16117095947265625
203,0,0,0.1800060272216797
204,0,0,0.16427040100097656
205,0,0,0.16117095947265625
206,0,0,0.1609325408935547
207,0,0,0.16260147094726562
208,2,2,0.16260147094726562
209,0,0,0.16236305236816406
210,1,1,0.16188621520996094
211,0,0,0.1633167266845703
212,0,0,0.16164779663085938
213,0,0,0.1609325408935547
214,0,0,0.15926361083984375
215,0,0,0.15926361083984375
216,2,2,0.15807151794433594
217,0,0,0.16188621520996094
218,0,0,0.16260147094726562
219,0,0,0.1614093780517578
220,0,0,0.16045570373535156
221,0,0,0.164031982421875
222,2,2,0.16164779663085938
223,2,2,0.1766681671142578
224,0,0,0.1621246337890625
225,1,2,0.16355514526367188
226,0,0,0.1633167266845703
227,0,0,0.15974044799804688
228,0,0,0.1614093780517578
229,0,0,0.1609325408935547
230,0,0,0.1633167266845703
231,0,0,0.16045570373535156
232,0,0,0.15926361083984375
233,0,0,0.1609325408935547
234,3,3,0.16236305236816406
235,0,0,0.1614093780517578
236,0,0,0.16021728515625
237,0,0,0.15997886657714844
238,1,1,0.16260147094726562
239,0,0,0.15878677368164062
240,0,0,0.16355514526367188
241,0,0,0.15878677368164062
242,0,0,0.15926361083984375
243,0,0,0.15807151794433594
244,1,1,0.164031982421875
245,0,0,0.1628398895263672
246,0,0,0.1609325408935547
247,2,2,0.16164779663085938
248,2,2,0.16260147094726562
249,0,0,0.15997886657714844
250,0,0,0.1595020294189453
251,0,0,0.16427040100097656
252,0,0,0.16236305236816406
253,2,2,0.15926361083984375
254,0,0,0.1595020294189453
255,0,0,0.16307830810546875
256,0,0,0.16021728515625
257,0,0,0.2818107604980469
258,0,0,0.1666545867919922
259,0,0,0.24008750915527344
260,0,0,0.16689300537109375
261,2,2,0.16450881958007812
262,0,0,0.16355514526367188
263,0,0,0.16260147094726562
264,1,1,0.16355514526367188
265,0,0,0.1614093780517578
266,0,0,0.16164779663085938
267,0,0,0.1609325408935547
268,3,3,0.16546249389648438
269,2,2,0.16164779663085938
270,2,2,0.1621246337890625
271,0,0,0.1671314239501953
272,0,0,0.16307830810546875
273,0,0,0.16498565673828125
274,0,0,0.16069412231445312
275,2,2,0.1595020294189453
276,0,0,0.16498565673828125
277,0,0,0.16355514526367188
278,0,0,0.1595020294189453
279,0,0,0.164031982421875
280,0,0,0.16450881958007812
281,0,0,0.1621246337890625
282,0,0,0.16188621520996094
283,0,0,0.16450881958007812
284,0,0,0.16069412231445312
285,2,2,0.16379356384277344
286,2,2,0.1621246337890625
287,0,0,0.16164779663085938
288,0,0,0.164031982421875
289,0,0,0.16379356384277344
290,1,1,0.16188621520996094
291,0,0,0.1609325408935547
292,0,0,0.1609325408935547
293,0,0,0.1609325408935547
294,0,0,0.15854835510253906
295,0,0,0.15807151794433594
296,0,0,0.164031982421875
297,0,0,0.1595020294189453
298,0,0,0.1633167266845703
299,0,0,0.16117095947265625
300,0,0,0.1647472381591797
301,0,0,0.15854835510253906
302,3,3,0.16379356384277344
303,2,2,0.16450881958007812
304,0,0,0.1671314239501953
305,2,2,0.16355514526367188
306,0,0,0.16117095947265625
307,0,0,0.1628398895263672
308,0,0,0.1609325408935547
309,0,0,0.1628398895263672
310,0,0,0.1621246337890625
311,0,0,0.1590251922607422
312,0,0,0.15854835510253906
313,0,0,0.1628398895263672
314,0,0,0.1621246337890625
315,0,0,0.1633167266845703
316,0,0,0.15974044799804688
317,0,0,0.16236305236816406
318,2,2,0.16355514526367188
319,0,0,0.16021728515625
320,0,0,0.16236305236816406
321,0,0,0.16188621520996094
322,0,0,0.1633167266845703
323,0,0,0.18095970153808594
324,0,0,0.15878677368164062
325,0,0,0.16117095947265625
326,0,0,0.15926361083984375
327,0,0,0.16045570373535156
328,0,0,0.15974044799804688
329,0,0,0.15878677368164062
330,0,0,0.16307830810546875
331,0,0,0.15997886657714844
332,0,0,0.1621246337890625
333,0,0,0.1595020294189453
334,0,0,0.16045570373535156
335,0,0,0.16117095947265625
336,0,0,0.1647472381591797
337,0,0,0.16164779663085938
338,0,0,0.16450881958007812
339,0,0,0.2734661102294922
340,0,0,0.16951560974121094
341,0,0,0.16450881958007812
342,0,0,0.2789497375488281
343,0,0,0.23603439331054688
344,2,2,0.2288818359375
345,0,0,0.18525123596191406
346,0,0,0.2048015594482422
347,0,0,0.22292137145996094
348,0,0,0.1621246337890625
349,0,0,0.19073486328125
350,0,0,0.16617774963378906
351,0,0,0.20170211791992188
352,0,0,0.1895427703857422
353,0,0,0.16379356384277344
354,0,0,0.20599365234375
355,0,0,0.1876354217529297
356,0,0,0.20837783813476562
357,0,0,0.18930435180664062
358,1,0,0.22554397583007812
359,2,2,0.2262592315673828
360,0,0,0.18715858459472656
361,0,0,0.20003318786621094
362,0,0,0.22220611572265625
363,0,0,0.18477439880371094
364,0,0,0.2028942108154297
365,0,0,0.16164779663085938
366,0,0,0.20837783813476562
367,0,0,0.1652240753173828
368,1,1,0.16427040100097656
369,2,2,0.16450881958007812
370,0,0,0.15974044799804688
371,0,0,0.15997886657714844
372,0,0,0.164031982421875
373,0,0,0.16045570373535156
374,2,2,0.16260147094726562
375,0,0,0.24127960205078125
376,1,1,0.2884864807128906
377,0,0,0.2067089080810547
378,0,0,0.19979476928710938
379,0,0,0.213623046875
380,1,1,0.19478797912597656
381,0,0,0.1862049102783203
382,0,0,0.20241737365722656
383,2,2,0.20742416381835938
384,0,0,0.20599365234375
385,0,0,0.202178955078125
386,0,0,0.19550323486328125
387,0,0,0.20241737365722656
388,0,0,0.21076202392578125
389,0,0,0.20456314086914062
390,0,0,0.2503395080566406
391,0,0,0.21338462829589844
392,0,0,0.21791458129882812
393,0,0,0.21266937255859375
394,0,0,0.2009868621826172
395,2,2,0.18835067749023438
396,2,2,0.17762184143066406
397,0,0,0.17547607421875
398,0,0,0.17499923706054688
399,0,0,0.18310546875
400,2,2,0.18835067749023438
401,0,0,0.18930435180664062
402,0,0,0.20384788513183594
403,0,0,0.2014636993408203
404,2,2,0.19240379333496094
405,0,0,0.36787986755371094
406,0,0,0.2148151397705078
407,1,1,0.29754638671875
408,0,0,0.1952648162841797
409,0,0,0.18858909606933594
410,0,0,0.18215179443359375
411,0,1,0.1747608184814453
412,0,0,0.16951560974121094
413,2,2,0.1838207244873047
414,0,0,0.17142295837402344
415,2,2,0.17547607421875
416,0,0,0.18215179443359375
417,0,0,0.1811981201171875
418,0,0,0.17142295837402344
419,0,0,0.18262863159179688
420,0,0,0.17833709716796875
421,0,0,0.2219676971435547
422,0,0,0.18525123596191406
423,0,0,0.18143653869628906
424,0,0,0.17881393432617188
425,1,1,0.18262863159179688
426,0,0,0.17833709716796875
427,0,0,0.1761913299560547
428,0,0,0.1659393310546875
429,0,0,0.17881393432617188
430,0,0,0.19407272338867188
431,0,0,0.1881122589111328
432,0,0,0.19311904907226562
433,0,0,0.18739700317382812
434,0,0,0.19669532775878906
435,0,0,0.20241737365722656
436,0,0,0.2002716064453125
437,0,0,0.1876354217529297
438,0,0,0.18644332885742188
439,2,2,0.17523765563964844
440,0,0,0.17714500427246094
441,0,0,0.1723766326904297
442,0,0,0.17023086547851562
443,0,0,0.1690387725830078
444,0,0,0.16951560974121094
445,2,2,0.16832351684570312
446,0,0,0.1709461212158203
447,0,0,0.17881393432617188
448,0,0,0.16927719116210938
449,0,0,0.16427040100097656
450,0,0,0.16999244689941406
451,0,0,0.1690387725830078
452,0,0,0.18095970153808594
453,1,1,0.17070770263671875
454,0,0,0.1742839813232422
455,0,0,0.17213821411132812
456,0,0,0.21386146545410156
457,0,0,0.1747608184814453
458,2,2,0.17333030700683594
459,0,0,0.17404556274414062
460,0,0,0.17261505126953125
461,0,0,0.1742839813232422
462,0,0,0.1800060272216797
463,0,0,0.17714500427246094
464,0,0,0.1838207244873047
465,0,0,0.1914501190185547
466,0,0,0.19621849060058594
467,0,0,0.1876354217529297
468,0,0,0.19812583923339844
469,0,0,0.217437744140625
470,0,0,0.20384788513183594
471,0,0,0.18906593322753906
472,0,0,0.2219676971435547
473,0,0,0.18358230590820312
474,0,0,0.1785755157470703
475,0,0,0.33974647521972656
476,0,0,0.2028942108154297
477,0,0,0.33664703369140625
478,0,0,0.20813941955566406
479,0,0,0.20122528076171875
480,0,0,0.2048015594482422
481,0,0,0.19621849060058594
482,0,0,0.21696090698242188
483,0,0,0.22482872009277344
484,0,0,0.2129077911376953
485,2,2,0.2124309539794922
486,0,0,0.23651123046875
487,0,0,0.18978118896484375
488,0,0,0.1895427703857422
489,0,0,0.19049644470214844
490,0,0,0.18835067749023438
491,0,0,0.18167495727539062
492,0,0,0.18477439880371094
493,0,0,0.17309188842773438
494,0,0,0.16808509826660156
495,0,0,0.17881393432617188
496,0,0,0.1881122589111328
497,0,0,0.18167495727539062
498,0,0,0.18525123596191406
499,0,0,0.18286705017089844
500,0,0,0.1857280731201172
501,2,2,0.18596649169921875
502,0,0,0.21910667419433594
503,0,0,0.17762184143066406
504,0,0,0.18405914306640625
505,0,0,0.19121170043945312
506,0,0,0.2048015594482422
507,0,0,0.2002716064453125
508,0,0,0.19359588623046875
509,0,0,0.19478797912597656
510,0,0,0.19359588623046875
511,0,0,0.1823902130126953
512,0,0,0.18095970153808594
513,0,0,0.17023086547851562
514,0,0,0.19073486328125
515,0,0,0.2009868621826172
516,0,0,0.21219253540039062
517,0,0,0.19931793212890625
518,2,2,0.22840499877929688
519,0,0,0.19407272338867188
520,0,0,0.18668174743652344
521,0,0,0.18024444580078125
522,0,0,0.17833709716796875
523,0,4,0.19216537475585938
524,0,0,0.1785755157470703
525,0,0,0.17714500427246094
526,0,0,0.19407272338867188
527,0,0,0.1800060272216797
528,0,0,0.1735687255859375
529,0,0,0.18477439880371094
530,0,0,0.20003318786621094
531,0,0,0.2129077911376953
532,0,0,0.24127960205078125
533,0,1,0.2319812774658203
534,2,0,0.19407272338867188
535,0,0,0.18787384033203125
536,0,0,0.2009868621826172
537,0,0,0.19216537475585938
538,0,0,0.34499168395996094
539,0,0,0.2143383026123047
540,2,2,0.33283233642578125
541,0,0,0.2200603485107422
542,0,0,0.19812583923339844
543,2,2,0.18453598022460938
544,0,0,0.17309188842773438
545,0,0,0.1671314239501953
546,0,0,0.17261505126953125
547,0,0,0.19288063049316406
548,0,0,0.22721290588378906
549,0,0,0.18548965454101562
550,0,0,0.16546249389648438
551,1,1,0.16355514526367188
552,0,0,0.15878677368164062
553,0,0,0.1590251922607422
554,0,0,0.15974044799804688
555,0,0,0.16045570373535156
556,0,0,0.15926361083984375
557,0,0,0.1609325408935547
558,0,0,0.16069412231445312
559,0,0,0.16546249389648438
560,0,0,0.1659393310546875
561,0,0,0.17261505126953125
562,0,0,0.1633167266845703
563,0,0,0.16379356384277344
564,0,0,0.16021728515625
565,0,0,0.16117095947265625
566,0,1,0.1628398895263672
567,0,0,0.2598762512207031
568,0,0,0.1723766326904297
569,0,0,0.16045570373535156
570,0,0,0.16236305236816406
571,0,0,0.1614093780517578
572,0,0,0.16355514526367188
573,0,0,0.16188621520996094
574,0,0,0.1595020294189453
575,0,0,0.1614093780517578
576,0,0,0.16355514526367188
577,0,0,0.16236305236816406
578,0,0,0.16307830810546875
579,0,0,0.1628398895263672
580,2,2,0.16164779663085938
581,0,0,0.16450881958007812
582,0,0,0.16307830810546875
583,0,0,0.1621246337890625
584,2,2,0.16164779663085938
585,0,0,0.16236305236816406
586,2,2,0.18787384033203125
587,0,0,0.1633167266845703
588,2,2,0.16355514526367188
589,0,0,0.16021728515625
590,0,0,0.15997886657714844
591,0,0,0.1595020294189453
592,0,0,0.16164779663085938
593,0,0,0.16045570373535156
594,0,0,0.1633167266845703
595,2,2,0.1633167266845703
596,0,0,0.16188621520996094
597,0,0,0.16021728515625
598,0,0,0.16069412231445312
599,0,0,0.17213821411132812
600,0,0,0.17833709716796875
601,0,0,0.16498565673828125
602,0,0,0.1590251922607422
603,0,0,0.15974044799804688
604,2,2,0.16188621520996094
605,0,0,0.16260147094726562
606,0,0,0.18358230590820312
607,0,0,0.16546249389648438
608,0,0,0.16236305236816406
609,0,0,0.1633167266845703
610,0,0,0.16355514526367188
611,0,0,0.15878677368164062
612,0,0,0.1621246337890625
613,0,0,0.16236305236816406
614,0,0,0.15926361083984375
615,0,0,0.16069412231445312
616,0,0,0.3139972686767578
617,0,0,0.2276897430419922
618,0,0,0.32138824462890625
619,0,0,0.194549560546875
620,0,0,0.17833709716796875
621,0,0,0.16999244689941406
622,0,0,0.16307830810546875
623,0,0,0.2117156982421875
624,0,0,0.2052783966064453
625,0,0,0.18525123596191406
626,0,0,0.1804828643798828
627,0,0,0.19097328186035156
628,0,0,0.1914501190185547
629,0,0,0.17380714416503906
630,1,1,0.18835067749023438
631,1,1,0.21338462829589844
632,0,0,0.17595291137695312
633,0,0,0.16617774963378906
634,0,0,0.17333030700683594
635,0,0,0.17595291137695312
636,0,0,0.18215179443359375
637,0,0,0.19097328186035156
638,0,0,0.18334388732910156
639,0,0,0.2040863037109375
640,0,0,0.21457672119140625
641,0,0,0.18262863159179688
642,0,0,0.1728534698486328
643,0,0,0.16641616821289062
644,0,0,0.16450881958007812
645,0,0,0.16355514526367188
646,0,0,0.17070770263671875
647,0,0,0.19097328186035156
648,0,0,0.1678466796875
649,0,0,0.1652240753173828
650,0,0,0.16307830810546875
651,0,0,0.1609325408935547
652,0,0,0.1628398895263672
653,0,0,0.1633167266845703
654,0,0,0.16260147094726562
655,0,0,0.16117095947265625
656,0,0,0.16379356384277344
657,0,0,0.15926361083984375
658,0,0,0.18668174743652344
659,0,0,0.16045570373535156
660,0,0,0.16617774963378906
661,0,0,0.16498565673828125
662,0,0,0.16164779663085938
663,0,0,0.15878677368164062
664,0,0,0.16260147094726562
665,0,0,0.15974044799804688
666,0,0,0.16164779663085938
667,0,0,0.16188621520996094
668,0,0,0.15926361083984375
669,0,0,0.1621246337890625
670,0,0,0.164031982421875
671,0,0,0.1595020294189453
672,0,0,0.16045570373535156
673,0,0,0.1628398895263672
674,1,1,0.1609325408935547
675,0,0,0.16045570373535156
676,0,0,0.16164779663085938
677,0,0,0.1621246337890625
678,0,0,0.1609325408935547
679,0,0,0.16427040100097656
680,0,0,0.16236305236816406
681,0,0,0.15997886657714844
682,0,0,0.164031982421875
683,0,0,0.16260147094726562
684,0,0,0.1583099365234375
685,0,0,0.16379356384277344
686,0,0,0.1652240753173828
687,0,0,0.16498565673828125
688,0,0,0.16236305236816406
689,0,0,0.16164779663085938
690,0,0,0.1671314239501953
691,0,0,0.2880096435546875
692,0,0,0.20241737365722656
693,0,0,0.19693374633789062
694,0,0,0.19431114196777344
695,0,0,0.16689300537109375
696,0,0,0.19359588623046875
697,0,0,0.16379356384277344
698,2,2,0.16164779663085938
699,0,0,0.1647472381591797
700,2,2,0.1628398895263672
701,0,0,0.15926361083984375
702,0,0,0.16069412231445312
703,0,0,0.15997886657714844
704,0,0,0.1609325408935547
705,0,0,0.15997886657714844
706,2,2,0.3001689910888672
707,0,0,0.1633167266845703
708,0,0,0.164031982421875
709,0,0,0.1614093780517578
710,0,0,0.16069412231445312
711,0,0,0.16069412231445312
712,0,0,0.1583099365234375
713,0,0,0.1583099365234375
714,0,0,0.16117095947265625
715,0,0,0.16450881958007812
716,0,0,0.16260147094726562
717,0,0,0.16236305236816406
718,0,0,0.16164779663085938
719,0,0,0.16307830810546875
720,0,0,0.1628398895263672
721,0,0,0.15926361083984375
722,3,3,0.1652240753173828
723,0,0,0.15807151794433594
724,0,0,0.16379356384277344
725,2,2,0.16379356384277344
726,0,0,0.16117095947265625
727,0,0,0.1614093780517578
728,0,0,0.15997886657714844
729,0,0,0.16021728515625
730,0,0,0.1609325408935547
731,0,0,0.1647472381591797
732,0,0,0.16427040100097656
733,1,0,0.15926361083984375
734,0,0,0.15997886657714844
735,0,0,0.16260147094726562
736,0,0,0.16689300537109375
737,0,0,0.16617774963378906
738,0,0,0.1590251922607422
739,0,0,0.1583099365234375
740,0,0,0.15854835510253906
741,0,0,0.15878677368164062
742,0,0,0.1659393310546875
743,0,0,0.15926361083984375
744,0,0,0.1633167266845703
745,0,0,0.16355514526367188
746,2,2,0.1621246337890625
747,3,3,0.16188621520996094
748,0,0,0.1628398895263672
749,0,0,0.164031982421875
750,0,0,0.1621246337890625
751,0,0,0.16117095947265625
752,0,0,0.15926361083984375
753,0,0,0.16164779663085938
754,0,0,0.15997886657714844
755,0,0,0.16236305236816406
756,0,0,0.25081634521484375
757,0,0,0.16617774963378906
758,0,0,0.16498565673828125
759,0,0,0.16427040100097656
760,0,0,0.16355514526367188
761,0,0,0.15997886657714844
762,0,0,0.164031982421875
763,1,1,0.16260147094726562
764,0,0,0.1590251922607422
765,2,2,0.16164779663085938
766,0,0,0.16164779663085938
767,0,0,0.16164779663085938
768,2,2,0.16379356384277344
769,0,0,0.16117095947265625
770,0,0,0.15807151794433594
771,0,0,0.1621246337890625
772,0,0,0.2906322479248047
773,0,0,0.16689300537109375
774,0,0,0.26345252990722656
775,0,0,0.1747608184814453
776,0,0,0.16498565673828125
777,0,0,0.16355514526367188
778,0,0,0.16570091247558594
779,0,0,0.16236305236816406
780,0,0,0.1621246337890625
781,0,0,0.1609325408935547
782,0,0,0.16355514526367188
783,0,0,0.16617774963378906
784,2,2,0.16069412231445312
785,0,0,0.164031982421875
786,0,0,0.16260147094726562
787,0,0,0.16379356384277344
788,0,0,0.15926361083984375
789,0,0,0.16188621520996094
790,0,0,0.16164779663085938
791,0,0,0.1614093780517578
792,0,0,0.16307830810546875
793,0,0,0.1595020294189453
794,0,0,0.1895427703857422
795,0,0,0.16236305236816406
796,0,0,0.16379356384277344
797,0,0,0.1614093780517578
798,0,0,0.15997886657714844
799,0,0,0.17118453979492188
800,0,0,0.1609325408935547
801,0,0,0.1609325408935547
802,0,0,0.16450881958007812
803,0,0,0.16045570373535156
804,0,0,0.1595020294189453
805,0,0,0.16069412231445312
806,0,0,0.16069412231445312
807,0,0,0.16164779663085938
808,0,0,0.1621246337890625
809,0,0,0.15974044799804688
810,0,0,0.16307830810546875
811,0,0,0.1628398895263672
812,0,0,0.16307830810546875
813,0,0,0.16570091247558594
814,0,0,0.1850128173828125
815,0,0,0.2512931823730469
816,0,0,0.1957416534423828
817,2,2,0.20432472229003906
818,2,2,0.22268295288085938
819,2,2,0.18835067749023438
820,0,0,0.20456314086914062
821,0,0,0.164031982421875
822,0,0,0.20647048950195312
823,0,0,0.18978118896484375
824,0,0,0.1652240753173828
825,0,0,0.2048015594482422
826,0,0,0.18668174743652344
827,0,0,0.1938343048095703
828,2,2,0.2541542053222656
829,2,2,0.22220611572265625
830,0,0,0.21314620971679688
831,0,0,0.22530555725097656
832,0,0,0.22721290588378906
833,0,0,0.23984909057617188
834,0,0,0.17642974853515625
835,0,0,0.17762184143066406
836,0,0,0.1785755157470703
837,0,0,0.19669532775878906
838,0,0,0.1952648162841797
839,0,0,0.2105236053466797
840,0,0,0.20742416381835938
841,0,0,0.20432472229003906
842,0,0,0.20384788513183594
843,2,2,0.19979476928710938
844,0,0,0.3654956817626953
845,0,0,0.21123886108398438
846,0,0,0.3402233123779297
847,0,0,0.21505355834960938
848,0,0,0.209808349609375
849,0,0,0.19812583923339844
850,0,0,0.18548965454101562
851,0,0,0.17786026000976562
852,2,2,0.17261505126953125
853,0,0,0.1690387725830078
854,0,0,0.1773834228515625
855,0,0,0.17142295837402344
856,0,0,0.164031982421875
857,0,0,0.16570091247558594
858,0,0,0.1647472381591797
859,0,0,0.1621246337890625
860,0,0,0.217437744140625
861,0,0,0.1723766326904297
862,0,0,0.1652240753173828
863,0,0,0.1704692840576172
864,0,0,0.1690387725830078
865,0,0,0.1647472381591797
866,0,0,0.1647472381591797
867,0,0,0.16999244689941406
868,0,0,0.16951560974121094
869,0,0,0.16427040100097656
870,0,0,0.1647472381591797
871,0,0,0.1678466796875
872,0,0,0.16427040100097656
873,0,0,0.17118453979492188
874,0,0,0.17142295837402344
875,0,0,0.17595291137695312
876,0,0,0.1926422119140625
877,1,1,0.1933574676513672
878,0,0,0.22792816162109375
879,0,0,0.20360946655273438
880,3,2,0.1976490020751953
881,0,0,0.1971721649169922
882,2,2,0.18644332885742188
883,2,1,0.1862049102783203
884,0,0,0.17023086547851562
885,0,0,0.16307830810546875
886,0,0,0.1647472381591797
887,0,0,0.1678466796875
888,0,0,0.1647472381591797
889,0,0,0.17213821411132812
890,0,0,0.17261505126953125
891,0,0,0.1704692840576172
892,0,0,0.1659393310546875
893,0,0,0.16379356384277344
894,0,0,0.16498565673828125
895,0,0,0.16617774963378906
896,0,0,0.20623207092285156
897,0,0,0.1804828643798828
898,2,2,0.1704692840576172
899,0,0,0.16546249389648438
900,0,0,0.16927719116210938
901,0,0,0.16951560974121094
902,0,0,0.1678466796875
903,0,0,0.1621246337890625
904,0,0,0.16045570373535156
905,0,0,0.16260147094726562
906,0,0,0.1628398895263672
907,0,0,0.1628398895263672
908,0,0,0.1621246337890625
909,2,2,0.16236305236816406
910,0,0,0.1704692840576172
911,0,0,0.1659393310546875
912,0,0,0.16069412231445312
913,0,0,0.16450881958007812
914,0,0,0.16450881958007812
915,0,0,0.18739700317382812
916,2,2,0.1671314239501953
917,0,0,0.16164779663085938
918,0,0,0.2913475036621094
919,0,0,0.1728534698486328
920,2,2,0.1633167266845703
921,0,0,0.25200843811035156
922,0,0,0.1678466796875
923,0,0,0.16498565673828125
924,1,1,0.164031982421875
925,2,2,0.1621246337890625
926,0,0,0.16236305236816406
927,0,0,0.16069412231445312
928,0,0,0.1633167266845703
929,0,0,0.16427040100097656
930,0,0,0.1609325408935547
931,0,3,0.16236305236816406
932,0,0,0.1583099365234375
933,0,0,0.16260147094726562
934,0,0,0.2655982971191406
935,2,2,0.17499923706054688
936,0,0,0.1697540283203125
937,0,0,0.16450881958007812
938,0,0,0.16021728515625
939,0,0,0.1659393310546875
940,0,0,0.1614093780517578
941,0,0,0.1595020294189453
942,0,0,0.15854835510253906
943,0,0,0.15878677368164062
944,0,0,0.15974044799804688
945,0,0,0.16617774963378906
946,0,0,0.16307830810546875
947,0,0,0.16260147094726562
948,0,0,0.15735626220703125
949,0,0,0.1628398895263672
950,0,0,0.16379356384277344
951,0,0,0.1614093780517578
952,0,0,0.16188621520996094
953,0,0,0.18262863159179688
954,2,2,0.16355514526367188
955,0,0,0.16450881958007812
956,0,0,0.16570091247558594
957,0,0,0.16355514526367188
958,0,0,0.15974044799804688
959,0,0,0.16355514526367188
960,0,0,0.16164779663085938
961,0,0,0.16307830810546875
962,0,0,0.1609325408935547
963,0,0,0.16236305236816406
964,0,0,0.16069412231445312
965,2,2,0.16307830810546875
966,0,0,0.16260147094726562
967,0,0,0.17118453979492188
968,0,0,0.1614093780517578
969,2,2,0.16450881958007812
970,0,0,0.16260147094726562
971,0,0,0.1609325408935547
972,0,0,0.16236305236816406
973,0,0,0.20694732666015625
974,0,0,0.1888275146484375
975,0,0,0.1914501190185547
976,0,0,0.18644332885742188
977,0,0,0.1862049102783203
978,0,0,0.18167495727539062
979,0,0,0.1838207244873047
980,0,0,0.1933574676513672
981,0,0,0.19121170043945312
982,1,1,0.1900196075439453
983,0,0,0.19288063049316406
984,2,2,0.18453598022460938
985,0,0,0.18143653869628906
986,0,0,0.1857280731201172
987,0,0,0.1888275146484375
988,0,0,0.19049644470214844
989,0,0,0.23746490478515625
990,0,0,0.2048015594482422
991,0,0,0.19025802612304688
992,0,0,0.18286705017089844
993,0,0,0.19431114196777344
994,0,0,0.32973289489746094
995,0,0,0.18835067749023438
996,0,0,0.26488304138183594
997,2,2,0.1735687255859375
998,2,2,0.16570091247558594
999,0,0,0.1671314239501953
1000,3,3,0.16498565673828125
1001,0,0,0.16117095947265625
1002,0,0,0.15997886657714844
1003,0,0,0.16379356384277344
1004,0,0,0.15854835510253906
1005,0,0,0.15854835510253906
1006,1,0,0.19502639770507812
1007,0,0,0.16617774963378906
1008,2,2,0.16355514526367188
1009,0,0,0.16069412231445312
1010,0,0,0.15807151794433594
1011,0,0,0.15926361083984375
1012,0,0,0.1628398895263672
1013,0,0,0.1590251922607422
1014,0,0,0.1690387725830078
1015,0,0,0.1614093780517578
1016,0,0,0.16617774963378906
1017,0,0,0.16021728515625
1018,0,0,0.1595020294189453
1019,0,0,0.1609325408935547
1020,0,0,0.16307830810546875
1021,0,0,0.16236305236816406
1022,0,0,0.16236305236816406
1023,2,2,0.16164779663085938
1024,0,0,0.16498565673828125
1025,0,0,0.1621246337890625
1026,0,0,0.18167495727539062
1027,0,0,0.1666545867919922
1028,0,0,0.16236305236816406
1029,2,2,0.16164779663085938
1030,0,0,0.16164779663085938
1031,0,0,0.1614093780517578
1032,0,0,0.16164779663085938
1033,0,0,0.1614093780517578
1034,0,0,0.1659393310546875
1035,0,0,0.16260147094726562
1036,0,0,0.16617774963378906
1037,0,0,0.16427040100097656
1038,0,0,0.16236305236816406
1039,0,0,0.16164779663085938
1040,0,0,0.1614093780517578
1041,0,0,0.16307830810546875
1042,1,1,0.1621246337890625
1043,0,0,0.16021728515625
1044,0,0,0.15854835510253906
1045,0,0,0.26035308837890625
1046,1,1,0.18596649169921875
1047,0,0,0.18405914306640625
1048,0,0,0.18525123596191406
1049,0,0,0.18715858459472656
1050,0,0,0.19216537475585938
1051,0,0,0.19240379333496094
1052,0,0,0.1971721649169922
1053,0,0,0.1800060272216797
1054,0,0,0.16570091247558594
1055,1,1,0.1678466796875
1056,0,0,0.164031982421875
1057,0,0,0.16379356384277344
1058,0,0,0.1621246337890625
1059,0,0,0.1614093780517578
1060,0,0,0.16117095947265625
1061,0,0,0.1609325408935547
1062,0,0,0.1614093780517578
1063,2,2,0.21457672119140625
1064,0,0,0.18286705017089844
1065,3,3,0.1857280731201172
1066,0,0,0.18167495727539062
1067,0,0,0.16736984252929688
1068,0,0,0.16379356384277344
1069,0,0,0.1690387725830078
1070,0,0,0.16427040100097656
1071,0,0,0.164031982421875
1072,0,0,0.30875205993652344
1073,0,0,0.1933574676513672
1074,0,0,0.2968311309814453
1075,0,0,0.18978118896484375
1076,0,0,0.1933574676513672
1077,0,0,0.2002716064453125
1078,0,0,0.19884109497070312
1079,0,0,0.21338462829589844
1080,0,0,0.1666545867919922
1081,0,0,0.16236305236816406
1082,0,0,0.15974044799804688
1083,0,0,0.1621246337890625
1084,0,0,0.16164779663085938
1085,0,0,0.15997886657714844
1086,0,0,0.16951560974121094
1087,0,0,0.16164779663085938
1088,0,0,0.1595020294189453
1089,1,1,0.16355514526367188
1090,0,1,0.16355514526367188
1091,0,0,0.1621246337890625
1092,0,0,0.16379356384277344
1093,0,0,0.15974044799804688
1094,0,0,0.1652240753173828
1095,0,0,0.15926361083984375
1096,0,0,0.16021728515625
1097,0,0,0.1609325408935547
1098,2,2,0.164031982421875
1099,0,0,0.18477439880371094
1100,0,0,0.164031982421875
1101,0,0,0.1621246337890625
1102,0,0,0.16427040100097656
1103,0,0,0.16117095947265625
1104,3,3,0.16617774963378906
1105,0,0,0.1628398895263672
1106,1,1,0.1652240753173828
1107,0,0,0.1621246337890625
1108,2,2,0.2505779266357422
1109,0,0,0.179290771484375
1110,0,0,0.1850128173828125
1111,0,0,0.1938343048095703
1112,0,0,0.17523765563964844
1113,1,1,0.16498565673828125
1114,0,1,0.16808509826660156
1115,0,0,0.16379356384277344
1116,0,0,0.16069412231445312
1117,2,2,0.2837181091308594
1118,0,0,0.17333030700683594
1119,0,0,0.16355514526367188
1120,0,0,0.16117095947265625
1121,0,0,0.16617774963378906
1122,0,0,0.16236305236816406
1123,0,0,0.16450881958007812
1124,0,0,0.1614093780517578
1125,0,0,0.1628398895263672
1126,0,0,0.16450881958007812
1127,2,2,0.1621246337890625
1128,0,0,0.16236305236816406
1129,0,0,0.16164779663085938
1130,0,0,0.1666545867919922
1131,0,0,0.16427040100097656
1132,0,0,0.1621246337890625
1133,0,0,0.1590251922607422
1134,0,0,0.16164779663085938
1135,0,0,0.1842975616455078
1136,0,0,0.18310546875
1137,0,0,0.28395652770996094
1138,0,0,0.17261505126953125
1139,0,0,0.1666545867919922
1140,0,0,0.16427040100097656
1141,1,1,0.164031982421875
1142,0,0,0.16450881958007812
1143,0,0,0.1628398895263672
1144,0,0,0.1595020294189453
1145,2,2,0.16379356384277344
1146,0,0,0.1621246337890625
1147,0,0,0.1590251922607422
1148,0,0,0.16355514526367188
1149,0,0,0.18668174743652344
1150,0,0,0.17786026000976562
1151,0,0,0.2799034118652344
1152,0,0,0.18978118896484375
1153,0,0,0.20766258239746094
1154,0,0,0.20933151245117188
1155,0,1,0.1976490020751953
1156,0,0,0.1862049102783203
1157,0,0,0.1819133758544922
1158,2,2,0.16546249389648438
1159,0,0,0.16498565673828125
1160,2,2,0.1590251922607422
1161,0,0,0.16045570373535156
1162,1,1,0.16355514526367188
1163,0,0,0.16260147094726562
1164,0,0,0.164031982421875
1165,0,0,0.15974044799804688
1166,0,0,0.15926361083984375
1167,0,0,0.16164779663085938
1168,0,0,0.1621246337890625
1169,0,0,0.16236305236816406
1170,2,2,0.16307830810546875
1171,2,2,0.1595020294189453
1172,0,0,0.19812583923339844
1173,0,0,0.16236305236816406
1174,0,0,0.16117095947265625
1175,0,0,0.1595020294189453
1176,0,0,0.1633167266845703
1177,0,0,0.16021728515625
1178,0,0,0.1633167266845703
1179,0,0,0.1614093780517578
1180,0,0,0.16117095947265625
1181,0,0,0.16260147094726562
1182,0,0,0.1633167266845703
1183,0,0,0.15997886657714844
1184,0,0,0.16117095947265625
1185,0,0,0.1621246337890625
1186,2,2,0.17189979553222656
1187,0,0,0.16427040100097656
1188,0,0,0.16260147094726562
1189,0,0,0.16355514526367188
1190,0,0,0.16427040100097656
1191,0,0,0.15997886657714844
1192,0,0,0.186920166015625
1193,0,0,0.16641616821289062
1194,0,0,0.1614093780517578
1195,0,0,0.16117095947265625
1196,0,0,0.1666545867919922
1197,0,0,0.16307830810546875
1198,0,0,0.15974044799804688
1199,0,0,0.16355514526367188
1200,2,2,0.16379356384277344
1201,0,0,0.16164779663085938
1202,2,2,0.16188621520996094
1203,0,0,0.16045570373535156
1204,0,0,0.17070770263671875
1205,0,0,0.16617774963378906
1206,0,0,0.1666545867919922
1207,1,0,0.15854835510253906
1208,0,0,0.16021728515625
1209,2,0,0.1621246337890625
1210,1,1,0.1633167266845703
1211,0,0,0.15974044799804688
1212,0,0,0.17905235290527344
1213,0,0,0.16427040100097656
1214,0,0,0.16546249389648438
1215,0,0,0.16117095947265625
1216,0,0,0.16188621520996094
1217,0,0,0.16236305236816406
1218,2,2,0.1609325408935547
1219,0,0,0.1628398895263672
1220,0,0,0.1614093780517578
1221,0,0,0.16307830810546875
1222,0,0,0.1628398895263672
1223,0,0,0.15974044799804688
1224,0,0,0.16117095947265625
1225,0,0,0.16546249389648438
1226,0,0,0.16307830810546875
1227,2,0,0.16450881958007812
1228,0,0,0.2856254577636719
1229,0,0,0.19097328186035156
1230,0,0,0.17595291137695312
1231,2,2,0.28514862060546875
1232,0,0,0.16999244689941406
1233,0,0,0.16188621520996094
1234,0,0,0.1628398895263672
1235,0,0,0.1621246337890625
1236,0,0,0.1609325408935547
1237,0,0,0.15997886657714844
1238,0,0,0.1614093780517578
1239,0,0,0.15878677368164062
1240,0,0,0.15854835510253906
1241,0,0,0.16355514526367188
1242,0,0,0.16379356384277344
1243,0,0,0.1633167266845703
1244,0,0,0.16188621520996094
1245,3,3,0.16117095947265625
1246,0,0,0.16236305236816406
1247,0,0,0.16188621520996094
1248,0,0,0.16045570373535156
1249,0,0,0.1628398895263672
1250,0,0,0.18095970153808594
1251,1,1,0.1652240753173828
1252,0,0,0.16498565673828125
1253,1,1,0.16069412231445312
1254,0,0,0.16260147094726562
1255,0,0,0.15974044799804688
1256,0,0,0.16307830810546875
1257,0,0,0.15783309936523438
1258,0,0,0.1621246337890625
1259,0,1,0.1633167266845703
1260,0,0,0.16427040100097656
1261,0,0,0.16188621520996094
1262,0,0,0.1595020294189453
1263,0,0,0.15974044799804688
1264,0,0,0.15997886657714844
1265,0,1,0.16045570373535156
1266,0,0,0.16164779663085938
1267,1,1,0.16117095947265625
1268,0,0,0.16617774963378906
1269,0,0,0.15997886657714844
1270,0,0,0.1819133758544922
1271,0,0,0.16379356384277344
1272,0,0,0.16021728515625
1273,0,0,0.16117095947265625
1274,0,0,0.16450881958007812
1275,2,2,0.15997886657714844
1276,0,0,0.15854835510253906
1277,0,0,0.15878677368164062
1278,0,0,0.16236305236816406
1279,0,0,0.16260147094726562
1280,0,0,0.164031982421875
1281,0,0,0.15807151794433594
1282,0,0,0.16427040100097656
1283,0,0,0.164031982421875
1284,0,0,0.15974044799804688
1285,0,0,0.16236305236816406
1286,0,0,0.16164779663085938
1287,0,0,0.1590251922607422
1288,2,2,0.16307830810546875
1289,0,0,0.16236305236816406
1290,0,0,0.17905235290527344
1291,0,0,0.1633167266845703
1292,0,0,0.1583099365234375
1293,0,0,0.16045570373535156
1294,0,0,0.15997886657714844
1295,0,0,0.1595020294189453
1296,0,0,0.15926361083984375
1297,0,0,0.1633167266845703
1298,0,0,0.164031982421875
1299,0,1,0.16117095947265625
1300,0,0,0.16045570373535156
1301,0,0,0.16045570373535156
1302,0,0,0.1621246337890625
1303,0,0,0.1666545867919922
1304,1,1,0.1621246337890625
1305,0,0,0.1590251922607422
1306,0,0,0.1609325408935547
1307,0,0,0.1862049102783203
1308,0,0,0.18930435180664062
1309,0,0,0.1888275146484375
1310,0,0,0.5133152008056641
1311,0,0,0.3871917724609375
1312,0,0,0.2906322479248047
1313,0,0,0.2980232238769531
1314,0,0,0.28014183044433594
1315,0,0,0.2970695495605469
1316,0,0,0.2772808074951172
1317,0,0,0.21791458129882812
1318,0,0,0.23174285888671875
1319,0,0,0.2453327178955078
1320,0,0,0.2765655517578125
1321,0,0,0.19788742065429688
1322,0,0,0.21076202392578125
1323,2,2,0.2033710479736328
1324,0,0,0.19121170043945312
1325,0,0,0.1990795135498047
1326,0,0,0.16570091247558594
1327,0,0,0.16164779663085938
1328,0,0,0.1614093780517578
1329,0,0,0.1614093780517578
1330,0,0,0.16450881958007812
1331,2,2,0.164031982421875
1332,0,0,0.1595020294189453
1333,0,0,0.16236305236816406
1334,0,0,0.16355514526367188
1335,0,0,0.16021728515625
1336,0,0,0.16379356384277344
1337,0,0,0.1628398895263672
1338,0,0,0.15616416931152344
1339,0,0,0.18215179443359375
1340,0,0,0.16260147094726562
1341,0,0,0.1628398895263672
1342,0,0,0.1614093780517578
1343,0,0,0.17499923706054688
1344,0,0,0.1780986785888672
1345,0,0,0.1773834228515625
1346,0,0,0.1811981201171875
1347,0,0,0.1842975616455078
1348,0,0,0.18334388732910156
1349,0,0,0.17976760864257812
1350,0,0,0.17452239990234375
1351,0,0,0.16999244689941406
1352,0,0,0.16355514526367188
1353,0,0,0.1595020294189453
1354,0,1,0.1614093780517578
1355,0,0,0.16236305236816406
1356,0,0,0.16117095947265625
1357,0,0,0.1583099365234375
1358,0,0,0.19288063049316406
1359,0,0,0.1671314239501953
1360,0,0,0.15854835510253906
1361,1,1,0.16427040100097656
1362,0,0,0.1633167266845703
1363,0,0,0.15997886657714844
1364,0,0,0.15997886657714844
1365,0,0,0.1614093780517578
1366,0,0,0.16260147094726562
1367,0,0,0.16260147094726562
1368,2,2,0.16117095947265625
1369,0,0,0.16069412231445312
1370,0,0,0.16307830810546875
1371,0,0,0.1621246337890625
1372,0,0,0.16069412231445312
1373,0,0,0.16117095947265625
1374,0,0,0.16379356384277344
1375,0,0,0.1628398895263672
1376,0,0,0.16164779663085938
1377,0,0,0.15997886657714844
1378,0,0,0.18143653869628906
1379,0,0,0.16570091247558594
1380,0,0,0.1628398895263672
1381,0,0,0.3063678741455078
1382,2,2,0.17261505126953125
1383,0,0,0.25463104248046875
1384,0,0,0.17189979553222656
1385,0,0,0.16832351684570312
1386,0,0,0.1633167266845703
1387,0,0,0.1614093780517578
1388,0,0,0.1609325408935547
1389,0,0,0.1621246337890625
1390,0,0,0.1590251922607422
1391,0,0,0.16355514526367188
1392,0,0,0.1621246337890625
1393,0,0,0.16045570373535156
1394,0,0,0.16355514526367188
1395,0,0,0.1685619354248047
1396,0,0,0.1888275146484375
1397,0,0,0.1647472381591797
1398,0,0,0.15997886657714844
1399,0,0,0.16355514526367188
1400,0,0,0.1621246337890625
1401,0,0,0.16498565673828125
1402,0,0,0.15926361083984375
1403,0,0,0.16164779663085938
1404,0,0,0.16355514526367188
1405,0,0,0.16188621520996094
1406,0,0,0.16021728515625
1407,0,0,0.1614093780517578
1408,0,0,0.1652240753173828
1409,1,1,0.1633167266845703
1410,0,0,0.16021728515625
1411,0,0,0.15807151794433594
1412,0,0,0.15997886657714844
1413,3,3,0.16498565673828125
1414,0,0,0.16260147094726562
1415,0,0,0.16260147094726562
1416,0,0,0.1804828643798828
1417,0,0,0.16498565673828125
1418,0,0,0.1621246337890625
1419,0,0,0.16379356384277344
1420,0,0,0.16307830810546875
1421,0,0,0.16379356384277344
1422,0,0,0.16808509826660156
1423,0,0,0.16355514526367188
1424,0,0,0.16069412231445312
1425,0,0,0.16355514526367188
1426,0,0,0.16427040100097656
1427,0,0,0.16069412231445312
1428,0,0,0.1633167266845703
1429,0,0,0.16260147094726562
1430,0,0,0.16045570373535156
1431,0,0,0.16021728515625
1432,0,0,0.16355514526367188
1433,0,1,0.1671314239501953
1434,0,0,0.16069412231445312
1435,0,0,0.16188621520996094
1436,0,0,0.1876354217529297
1437,0,0,0.1647472381591797
1438,0,0,0.16427040100097656
1439,0,0,0.16450881958007812
1440,0,0,0.16450881958007812
1441,2,0,0.1647472381591797
1442,0,0,0.1575946807861328
1443,2,2,0.16236305236816406
1444,0,0,0.16164779663085938
1445,0,0,0.16188621520996094
1446,0,0,0.1659393310546875
1447,0,0,0.16117095947265625
1448,0,0,0.1614093780517578
1449,0,0,0.17833709716796875
1450,0,0,0.1888275146484375
1451,0,0,0.1811981201171875
1452,0,0,0.17833709716796875
1453,0,0,0.18453598022460938
1454,0,0,0.18644332885742188
1455,2,2,0.21266937255859375
1456,0,0,0.16736984252929688
1457,0,0,0.1621246337890625
1458,0,0,0.16498565673828125
1459,0,0,0.1621246337890625
1460,0,0,0.1633167266845703
1461,0,0,0.2982616424560547
1462,0,0,0.17333030700683594
1463,0,0,0.16689300537109375
1464,1,1,0.17070770263671875
1465,0,0,0.1628398895263672
1466,0,0,0.1621246337890625
1467,0,0,0.1621246337890625
1468,0,0,0.1595020294189453
1469,0,0,0.16069412231445312
1470,0,0,0.15926361083984375
1471,0,0,0.1723766326904297
1472,0,0,0.16164779663085938
1473,0,0,0.18095970153808594
1474,0,0,0.16307830810546875
1475,0,0,0.16021728515625
1476,0,0,0.1583099365234375
1477,0,0,0.1590251922607422
1478,0,0,0.15974044799804688
1479,0,0,0.16021728515625
1480,0,0,0.16117095947265625
1481,2,2,0.1614093780517578
1482,0,0,0.1621246337890625
1483,0,0,0.16164779663085938
1484,0,0,0.15926361083984375
1485,0,0,0.15854835510253906
1486,0,0,0.1704692840576172
1487,0,0,0.16260147094726562
1488,0,0,0.164031982421875
1489,0,0,0.16236305236816406
1490,0,0,0.16045570373535156
1491,0,0,0.1595020294189453
1492,0,0,0.16021728515625
1493,2,2,0.24509429931640625
1494,0,0,0.1780986785888672
1495,0,0,0.16570091247558594
1496,0,0,0.16736984252929688
1497,0,0,0.1628398895263672
1498,0,0,0.16188621520996094
1499,0,0,0.16236305236816406
1500,3,3,0.16307830810546875
1501,0,0,0.1609325408935547
1502,0,0,0.15783309936523438
1503,0,0,0.16379356384277344
1504,0,0,0.16880035400390625
1505,0,0,0.16236305236816406
1506,0,0,0.16045570373535156
1507,0,0,0.16307830810546875
1508,0,0,0.1621246337890625
1509,0,0,0.1628398895263672
1510,0,0,0.15854835510253906
1511,0,0,0.16117095947265625
1512,0,0,0.16045570373535156
1513,2,2,0.18143653869628906
1514,0,0,0.15997886657714844
1515,0,0,0.16236305236816406
1516,0,0,0.16427040100097656
1517,0,0,0.16164779663085938
1518,2,2,0.16117095947265625
1519,0,0,0.1595020294189453
1520,0,0,0.1614093780517578
1521,0,0,0.16117095947265625
1522,0,0,0.16117095947265625
1523,0,0,0.16236305236816406
1524,0,0,0.16260147094726562
1525,0,0,0.15997886657714844
1526,2,2,0.17571449279785156
1527,0,0,0.18548965454101562
1528,0,0,0.18525123596191406
1529,0,0,0.19097328186035156
1530,0,0,0.18262863159179688
1531,0,0,0.18286705017089844
1532,0,0,0.19669532775878906
1533,0,0,0.19073486328125
1534,0,0,0.1895427703857422
1535,0,0,0.19598007202148438
1536,0,0,0.1900196075439453
1537,0,0,0.19049644470214844
1538,0,0,0.18787384033203125
1539,0,0,0.17523765563964844
1540,0,0,0.1976490020751953
1541,0,0,0.17547607421875
1542,0,0,0.2574920654296875
1543,0,0,0.16641616821289062
1544,2,2,0.1628398895263672
1545,0,0,0.1647472381591797
1546,0,0,0.16355514526367188
1547,0,0,0.16355514526367188
1548,0,0,0.19407272338867188
1549,0,0,0.16641616821289062
1550,0,0,0.16450881958007812
1551,0,0,0.16379356384277344
1552,0,0,0.16307830810546875
1553,0,0,0.1621246337890625
1554,0,0,0.16117095947265625
1555,0,0,0.1628398895263672
1556,0,0,0.15997886657714844
1557,0,0,0.16236305236816406
1558,0,0,0.16021728515625
1559,3,3,0.16546249389648438
1560,0,0,0.1621246337890625
1561,0,0,0.15997886657714844
1562,2,2,0.1628398895263672
1563,2,2,0.16498565673828125
1564,0,0,0.16117095947265625
1565,0,0,0.1590251922607422
1566,0,0,0.15974044799804688
1567,0,0,0.16355514526367188
1568,0,0,0.18525123596191406
1569,0,0,0.1652240753173828
1570,0,0,0.1614093780517578
1571,0,1,0.15878677368164062
1572,0,0,0.1609325408935547
1573,0,0,0.16307830810546875
1574,0,0,0.1595020294189453
1575,0,0,0.1621246337890625
1576,0,0,0.16045570373535156
1577,2,2,0.1614093780517578
1578,0,0,0.16164779663085938
1579,2,2,0.16260147094726562
1580,0,0,0.16832351684570312
1581,0,0,0.16307830810546875
1582,0,0,0.16164779663085938
1583,0,0,0.1595020294189453
1584,0,0,0.16164779663085938
1585,0,0,0.1609325408935547
1586,0,0,0.16450881958007812
1587,0,0,0.1652240753173828
1588,0,0,0.17952919006347656
1589,2,2,0.1652240753173828
1590,0,0,0.1609325408935547
1591,0,0,0.1621246337890625
1592,0,0,0.1647472381591797
1593,0,0,0.16307830810546875
1594,0,0,0.15997886657714844
1595,2,2,0.15926361083984375
1596,0,1,0.1609325408935547
1597,0,0,0.1697540283203125
1598,0,0,0.16736984252929688
1599,0,0,0.16164779663085938
1600,0,0,0.16188621520996094
1601,0,0,0.16069412231445312
1602,0,0,0.1633167266845703
1603,0,0,0.1614093780517578
1604,0,0,0.16450881958007812
1605,0,0,0.16498565673828125
1606,0,0,0.15974044799804688
1607,0,0,0.1595020294189453
1608,0,0,0.18262863159179688
1609,0,0,0.1647472381591797
1610,0,0,0.16188621520996094
1611,0,0,0.164031982421875
1612,0,0,0.16236305236816406
1613,0,0,0.16188621520996094
1614,0,0,0.1621246337890625
1615,0,0,0.15974044799804688
1616,0,0,0.1621246337890625
1617,0,0,0.16236305236816406
1618,0,0,0.16379356384277344
1619,0,1,0.16236305236816406
1620,0,0,0.1628398895263672
1621,0,0,0.2834796905517578
1622,2,2,0.18906593322753906
1623,3,0,0.2684593200683594
1624,1,1,0.16951560974121094
1625,0,0,0.16355514526367188
1626,0,0,0.186920166015625
1627,0,0,0.16498565673828125
1628,0,0,0.16236305236816406
1629,0,0,0.16164779663085938
1630,0,0,0.1621246337890625
1631,0,0,0.15878677368164062
1632,0,0,0.16164779663085938
1633,2,2,0.16164779663085938
1634,0,0,0.16260147094726562
1635,0,0,0.1633167266845703
1636,0,0,0.1678466796875
1637,0,0,0.16307830810546875
1638,0,0,0.1633167266845703
1639,0,0,0.17547607421875
1640,0,0,0.1671314239501953
1641,2,2,0.1628398895263672
1642,0,0,0.164031982421875
1643,2,2,0.1609325408935547
1644,0,0,0.16188621520996094
1645,1,1,0.16117095947265625
1646,1,0,0.18596649169921875
1647,0,0,0.17452239990234375
1648,2,2,0.1652240753173828
1649,0,0,0.16236305236816406
1650,2,2,0.16379356384277344
1651,0,0,0.1652240753173828
1652,0,0,0.1621246337890625
1653,1,1,0.16188621520996094
1654,0,0,0.1628398895263672
1655,0,0,0.16069412231445312
1656,0,0,0.16069412231445312
1657,0,0,0.15997886657714844
1658,0,0,0.15997886657714844
1659,0,0,0.16450881958007812
1660,0,0,0.16069412231445312
1661,0,0,0.1621246337890625
1662,0,0,0.1621246337890625
1663,0,0,0.1621246337890625
1664,0,0,0.16355514526367188
1665,0,0,0.1609325408935547
1666,0,0,0.18525123596191406
1667,0,0,0.1609325408935547
1668,0,0,0.1614093780517578
1669,0,0,0.15974044799804688
1670,0,0,0.164031982421875
1671,0,0,0.16188621520996094
1672,0,0,0.16117095947265625
1673,0,0,0.16260147094726562
1674,0,0,0.16117095947265625
1675,2,2,0.1609325408935547
1676,0,0,0.16164779663085938
1677,0,0,0.16069412231445312
1678,0,0,0.1621246337890625
1679,0,0,0.1609325408935547
1680,0,0,0.16307830810546875
1681,0,0,0.16021728515625
1682,0,0,0.15997886657714844
1683,0,0,0.16498565673828125
1684,2,2,0.164031982421875
1685,0,0,0.16164779663085938
1686,0,0,0.2536773681640625
1687,0,0,0.1685619354248047
1688,0,0,0.16450881958007812
1689,0,0,0.1647472381591797
1690,0,0,0.15974044799804688
1691,0,0,0.16236305236816406
1692,0,0,0.16117095947265625
1693,0,0,0.1621246337890625
1694,0,0,0.17714500427246094
1695,0,0,0.19049644470214844
1696,0,0,0.16736984252929688
1697,0,0,0.16355514526367188
1698,2,2,0.16450881958007812
1699,0,0,0.1633167266845703
1700,0,0,0.16045570373535156
1701,0,0,0.16164779663085938
1702,0,0,0.17952919006347656
1703,0,0,0.16808509826660156
1704,0,0,0.28324127197265625
1705,0,0,0.1659393310546875
1706,0,0,0.1621246337890625
1707,0,0,0.164031982421875
1708,1,1,0.16427040100097656
1709,2,2,0.16379356384277344
1710,0,0,0.16355514526367188
1711,0,0,0.16307830810546875
1712,0,0,0.16260147094726562
1713,0,0,0.1595020294189453
1714,0,0,0.16236305236816406
1715,0,0,0.16188621520996094
1716,0,0,0.16045570373535156
1717,0,0,0.15926361083984375
1718,0,0,0.15878677368164062
1719,0,0,0.1614093780517578
1720,0,0,0.16427040100097656
1721,0,0,0.164031982421875
1722,0,0,0.1652240753173828
1723,0,0,0.15878677368164062
1724,0,0,0.23627281188964844
1725,0,0,0.22101402282714844
1726,0,0,0.1633167266845703
1727,0,0,0.1628398895263672
1728,0,1,0.16427040100097656
1729,0,0,0.16188621520996094
1730,0,0,0.1633167266845703
1731,0,0,0.16117095947265625
1732,0,0,0.1590251922607422
1733,0,0,0.15926361083984375
1734,0,0,0.16951560974121094
1735,0,0,0.16117095947265625
1736,0,0,0.16427040100097656
1737,0,0,0.16307830810546875
1738,0,0,0.15997886657714844
1739,0,0,0.1609325408935547
1740,0,0,0.15974044799804688
1741,0,0,0.1614093780517578
1742,0,0,0.19502639770507812
1743,0,0,0.16570091247558594
1744,0,0,0.16021728515625
1745,0,0,0.16498565673828125
1746,0,0,0.16260147094726562
1747,0,0,0.1609325408935547
1748,0,0,0.17881393432617188
1749,0,0,0.16808509826660156
1750,0,0,0.164031982421875
1751,0,0,0.1621246337890625
1752,0,0,0.16355514526367188
1753,0,0,0.16307830810546875
1754,0,0,0.1633167266845703
1755,0,0,0.16045570373535156
1756,0,0,0.16379356384277344
1757,0,0,0.1595020294189453
1758,1,1,0.1628398895263672
1759,0,0,0.15974044799804688
1760,0,0,0.15926361083984375
1761,1,1,0.16689300537109375
1762,0,0,0.1780986785888672
1763,0,0,0.1647472381591797
1764,0,0,0.16069412231445312
1765,0,0,0.15664100646972656
1766,0,0,0.1614093780517578
1767,0,0,0.15926361083984375
1768,0,0,0.16069412231445312
1769,0,0,0.16188621520996094
1770,0,0,0.1628398895263672
1771,0,0,0.1628398895263672
1772,1,1,0.16570091247558594
1773,0,0,0.16021728515625
1774,0,0,0.16045570373535156
1775,0,0,0.16355514526367188
1776,0,0,0.16307830810546875
1777,0,0,0.1633167266845703
1778,0,0,0.15974044799804688
1779,0,0,0.1614093780517578
1780,0,0,0.15997886657714844
1781,0,0,0.15974044799804688
1782,0,0,0.28896331787109375
1783,0,0,0.17523765563964844
1784,0,0,0.16307830810546875
1785,0,0,0.25010108947753906
1786,0,0,0.1652240753173828
1787,0,0,0.16546249389648438
1788,0,0,0.16021728515625
1789,0,0,0.16069412231445312
1790,0,0,0.16021728515625
1791,0,0,0.1704692840576172
1792,0,0,0.2033710479736328
1793,0,0,0.194549560546875
1794,0,0,0.18548965454101562
1795,0,0,0.18405914306640625
1796,0,0,0.18358230590820312
1797,0,0,0.19168853759765625
1798,1,0,0.1862049102783203
1799,0,0,0.2193450927734375
1800,0,0,0.19025802612304688
1801,0,0,0.1823902130126953
1802,0,0,0.1900196075439453
1803,2,2,0.1857280731201172
1804,0,0,0.1800060272216797
1805,0,0,0.1678466796875
1806,0,0,0.16188621520996094
1807,0,0,0.17786026000976562
1808,1,1,0.1628398895263672
1809,0,0,0.16188621520996094
1810,0,0,0.17333030700683594
1811,0,0,0.16450881958007812
1812,0,0,0.15974044799804688
1813,0,0,0.1614093780517578
1814,0,0,0.16117095947265625
1815,0,0,0.16260147094726562
1816,0,0,0.16260147094726562
1817,0,0,0.16260147094726562
1818,0,0,0.20122528076171875
1819,0,0,0.26702880859375
1820,0,0,0.19860267639160156
1821,0,0,0.16927719116210938
1822,0,0,0.20647048950195312
1823,0,0,0.1914501190185547
1824,0,0,0.16379356384277344
1825,2,2,0.18930435180664062
1826,0,0,0.22411346435546875
1827,0,0,0.24056434631347656
1828,0,0,0.2732276916503906
1829,2,2,0.2689361572265625
1830,2,2,0.22339820861816406
1831,0,0,0.19431114196777344
1832,0,0,0.30231475830078125
1833,0,0,0.2765655517578125
1834,0,0,0.26416778564453125
1835,0,0,0.20503997802734375
1836,0,0,0.17333030700683594
1837,0,0,0.164031982421875
1838,0,0,0.164031982421875
1839,0,0,0.1590251922607422
1840,0,0,0.16307830810546875
1841,0,0,0.16117095947265625
1842,0,0,0.16307830810546875
1843,0,0,0.1595020294189453
1844,0,0,0.16307830810546875
1845,0,0,0.15926361083984375
1846,0,0,0.1590251922607422
1847,0,0,0.1633167266845703
1848,2,2,0.16236305236816406
1849,0,0,0.16498565673828125
1850,0,0,0.19240379333496094
1851,0,0,0.16570091247558594
1852,0,0,0.16069412231445312
1853,0,0,0.2949237823486328
1854,0,0,0.16736984252929688
1855,0,0,0.24008750915527344
1856,0,0,0.16951560974121094
1857,0,0,0.16117095947265625
1858,0,0,0.16307830810546875
1859,0,0,0.1609325408935547
1860,0,0,0.16379356384277344
1861,0,2,0.1614093780517578
1862,0,0,0.16307830810546875
1863,0,0,0.16021728515625
1864,0,0,0.16307830810546875
1865,0,0,0.1621246337890625
1866,0,0,0.15997886657714844
1867,0,0,0.15974044799804688
1868,0,0,0.1609325408935547
1869,0,0,0.18739700317382812
1870,0,0,0.1685619354248047
1871,2,2,0.16355514526367188
1872,0,0,0.16355514526367188
1873,0,0,0.16069412231445312
1874,0,0,0.15997886657714844
1875,0,0,0.16307830810546875
1876,0,0,0.1621246337890625
1877,0,0,0.1659393310546875
1878,0,0,0.1595020294189453
1879,0,0,0.16069412231445312
1880,0,0,0.1628398895263672
1881,0,0,0.17023086547851562
1882,0,0,0.1678466796875
1883,0,0,0.16164779663085938
1884,0,0,0.1590251922607422
1885,0,0,0.15997886657714844
1886,0,0,0.1621246337890625
1887,0,0,0.15974044799804688
1888,0,0,0.19621849060058594
1889,0,0,0.16188621520996094
1890,0,0,0.16427040100097656
1891,0,0,0.1595020294189453
1892,0,0,0.1614093780517578
1893,0,0,0.1609325408935547
1894,0,0,0.1609325408935547
1895,0,0,0.16307830810546875
1896,0,0,0.1609325408935547
1897,0,0,0.1609325408935547
1898,0,0,0.15783309936523438
1899,0,0,0.16307830810546875
1900,0,0,0.15974044799804688
1901,0,0,0.16236305236816406
1902,0,0,0.15878677368164062
1903,0,0,0.1621246337890625
1904,0,0,0.16188621520996094
1905,0,0,0.15997886657714844
1906,0,3,0.16236305236816406
1907,0,0,0.1621246337890625
1908,0,0,0.18668174743652344
1909,0,0,0.16260147094726562
1910,0,0,0.1595020294189453
1911,0,0,0.16117095947265625
1912,0,0,0.15997886657714844
1913,0,0,0.15974044799804688
1914,0,0,0.1628398895263672
1915,2,2,0.16307830810546875
1916,0,0,0.16164779663085938
1917,0,0,0.1556873321533203
1918,0,0,0.15854835510253906
1919,0,0,0.16164779663085938
1920,0,0,0.16117095947265625
1921,0,0,0.1659393310546875
1922,0,0,0.16379356384277344
1923,0,0,0.15926361083984375
1924,0,0,0.16450881958007812
1925,0,0,0.1621246337890625
1926,0,0,0.15735626220703125
1927,0,0,0.16117095947265625
1928,0,0,0.17881393432617188
1929,0,0,0.16260147094726562
1930,2,2,0.1590251922607422
1931,1,1,0.16307830810546875
1932,0,0,0.164031982421875
1933,0,0,0.15974044799804688
1934,0,0,0.16379356384277344
1935,0,0,0.17118453979492188
1936,0,0,0.16307830810546875
1937,0,0,0.25010108947753906
1938,0,0,0.1652240753173828
1939,0,0,0.16236305236816406
1940,0,0,0.16117095947265625
1941,0,0,0.1652240753173828
1942,0,0,0.1614093780517578
1943,0,0,0.16069412231445312
1944,0,0,0.16021728515625
1945,0,0,0.16260147094726562
1946,0,0,0.263214111328125
1947,0,0,0.18525123596191406
1948,2,2,0.1850128173828125
1949,0,0,0.1952648162841797
1950,0,0,0.19073486328125
1951,0,0,0.18405914306640625
1952,2,2,0.19288063049316406
1953,0,0,0.179290771484375
1954,1,1,0.18858909606933594
1955,0,0,0.1876354217529297
1956,0,0,0.18215179443359375
1957,0,0,0.18167495727539062
1958,0,0,0.18453598022460938
1959,0,0,0.1862049102783203
1960,0,0,0.1952648162841797
1961,0,0,0.18906593322753906
1962,0,0,0.19621849060058594
1963,1,1,0.22077560424804688
1964,0,0,0.186920166015625
1965,0,0,0.18978118896484375
1966,0,0,0.17333030700683594
1967,0,0,0.16498565673828125
1968,0,0,0.1633167266845703
1969,0,0,0.16307830810546875
1970,0,0,0.1647472381591797
1971,0,0,0.16260147094726562
1972,0,0,0.16307830810546875
1973,0,0,0.15926361083984375
1974,0,0,0.16570091247558594
1975,0,0,0.18262863159179688
1976,0,0,0.16379356384277344
1977,0,0,0.1614093780517578
1978,0,0,0.1583099365234375
1979,0,0,0.16236305236816406
1980,0,0,0.16069412231445312
1981,0,0,0.1595020294189453
1982,0,0,0.1895427703857422
1983,0,0,0.16427040100097656
1984,0,0,0.16188621520996094
1985,3,3,0.1652240753173828
1986,0,0,0.1628398895263672
1987,0,0,0.15997886657714844
1988,0,0,0.16188621520996094
1989,0,0,0.15926361083984375
1990,0,0,0.16021728515625
1991,0,0,0.15926361083984375
1992,0,0,0.16498565673828125
1993,0,0,0.16021728515625
1994,0,0,0.16355514526367188
1995,0,0,0.16045570373535156
1996,0,0,0.15854835510253906
1997,0,0,0.15878677368164062
1998,0,0,0.1590251922607422
1999,0,0,0.16570091247558594
2000,0,0,0.16355514526367188
2001,0,0,0.16236305236816406
2002,0,0,0.17786026000976562
2003,2,2,0.16260147094726562
2004,0,0,0.1652240753173828
2005,0,0,0.1590251922607422
2006,0,0,0.1614093780517578
2007,0,0,0.16427040100097656
2008,0,0,0.16069412231445312
2009,0,0,0.15878677368164062
2010,0,0,0.16164779663085938
2011,0,0,0.15854835510253906
2012,1,1,0.1888275146484375
2013,0,0,0.17690658569335938
2014,0,0,0.2720355987548828
2015,0,0,0.16617774963378906
2016,0,0,0.164031982421875
2017,0,0,0.164031982421875
2018,0,0,0.16355514526367188
2019,0,0,0.1595020294189453
2020,0,0,0.18525123596191406
2021,0,0,0.16570091247558594
2022,0,0,0.16164779663085938
2023,0,0,0.1628398895263672
2024,0,0,0.16045570373535156
2025,0,0,0.1633167266845703
2026,0,0,0.16164779663085938
2027,0,0,0.16069412231445312
2028,0,0,0.16188621520996094
2029,0,0,0.1595020294189453
2030,0,0,0.16260147094726562
2031,0,0,0.1633167266845703
2032,0,0,0.164031982421875
2033,0,0,0.164031982421875
2034,0,0,0.16641616821289062
2035,0,0,0.16260147094726562
2036,0,0,0.16760826110839844
2037,0,0,0.16021728515625
2038,0,0,0.16498565673828125
2039,0,0,0.15926361083984375
2040,0,0,0.18310546875
2041,0,0,0.1609325408935547
2042,0,0,0.16117095947265625
2043,0,0,0.15926361083984375
2044,0,0,0.16117095947265625
2045,0,0,0.1609325408935547
2046,0,0,0.15854835510253906
2047,0,0,0.1628398895263672
2048,0,0,0.15974044799804688
2049,0,0,0.16355514526367188
2050,1,1,0.16236305236816406
2051,0,0,0.1609325408935547
2052,0,0,0.16307830810546875
2053,0,0,0.16307830810546875
2054,0,0,0.1609325408935547
2055,0,0,0.16236305236816406
2056,0,0,0.16379356384277344
2057,0,0,0.16021728515625
2058,0,0,0.15974044799804688
2059,0,0,0.15807151794433594
2060,0,0,0.2593994140625
2061,0,0,0.16832351684570312
2062,0,0,0.16450881958007812
2063,0,0,0.16880035400390625
2064,2,2,0.16379356384277344
2065,0,1,0.15926361083984375
2066,0,0,0.16021728515625
2067,0,0,0.16355514526367188
2068,0,0,0.1590251922607422
2069,0,0,0.15807151794433594
2070,0,0,0.15974044799804688
2071,2,2,0.15878677368164062
2072,0,0,0.16164779663085938
2073,0,0,0.1609325408935547
2074,0,0,0.16236305236816406
2075,0,0,0.16164779663085938
2076,0,0,0.16498565673828125
2077,0,0,0.16307830810546875
2078,0,0,0.1628398895263672
2079,0,0,0.1609325408935547
2080,0,0,0.16546249389648438
2081,0,0,0.16379356384277344
2082,0,0,0.164031982421875
2083,0,0,0.15974044799804688
2084,0,0,0.1595020294189453
2085,0,0,0.15878677368164062
2086,0,0,0.16021728515625
2087,0,0,0.16045570373535156
2088,0,0,0.16117095947265625
2089,0,0,0.16260147094726562
2090,0,0,0.15854835510253906
2091,0,0,0.16355514526367188
2092,0,0,0.1590251922607422
2093,0,0,0.29468536376953125
2094,0,0,0.18310546875
2095,0,0,0.2682209014892578
2096,2,2,0.16999244689941406
2097,0,0,0.1633167266845703
2098,0,0,0.1881122589111328
2099,0,0,0.1647472381591797
2100,0,0,0.164031982421875
2101,0,0,0.16069412231445312
2102,1,2,0.16117095947265625
2103,2,0,0.1609325408935547
2104,0,0,0.16450881958007812
2105,2,2,0.16260147094726562
2106,0,0,0.16069412231445312
2107,0,0,0.16427040100097656
2108,0,0,0.16260147094726562
2109,0,0,0.1652240753173828
2110,0,0,0.16617774963378906
2111,0,0,0.16355514526367188
2112,0,0,0.16069412231445312
2113,0,0,0.1590251922607422
2114,1,0,0.1628398895263672
2115,0,0,0.16117095947265625
2116,0,0,0.16188621520996094
2117,0,0,0.15997886657714844
2118,0,0,0.18525123596191406
2119,2,2,0.16641616821289062
2120,0,0,0.16117095947265625
2121,0,0,0.16450881958007812
2122,0,0,0.17786026000976562
2123,0,0,0.16689300537109375
2124,0,0,0.1614093780517578
2125,0,0,0.16379356384277344
2126,0,0,0.16021728515625
2127,0,0,0.1614093780517578
2128,0,0,0.16355514526367188
2129,0,0,0.1595020294189453
2130,0,0,0.1590251922607422
2131,1,1,0.1609325408935547
2132,0,0,0.16045570373535156
2133,0,0,0.16188621520996094
2134,0,0,0.1628398895263672
2135,0,0,0.1614093780517578
2136,0,0,0.16689300537109375
2137,0,0,0.16260147094726562
2138,0,0,0.19025802612304688
2139,0,0,0.1735687255859375
2140,0,0,0.16736984252929688
2141,0,0,0.1647472381591797
2142,0,0,0.16021728515625
2143,0,0,0.3266334533691406
2144,0,0,0.1666545867919922
2145,0,0,0.16307830810546875
2146,0,0,0.15997886657714844
2147,0,0,0.1621246337890625
2148,0,0,0.16236305236816406
2149,0,0,0.16307830810546875
2150,0,0,0.15974044799804688
2151,0,0,0.16021728515625
2152,0,0,0.16307830810546875
2153,0,0,0.16236305236816406
2154,0,0,0.1614093780517578
2155,0,0,0.16236305236816406
2156,0,0,0.16045570373535156
2157,0,0,0.16450881958007812
2158,0,0,0.16045570373535156
2159,0,0,0.1633167266845703
2160,0,0,0.1628398895263672
2161,0,0,0.16260147094726562
2162,1,1,0.1614093780517578
2163,0,0,0.16236305236816406
2164,0,0,0.16045570373535156
2165,0,0,0.16188621520996094
2166,0,0,0.15997886657714844
2167,0,0,0.16260147094726562
2168,0,0,0.16045570373535156
2169,0,0,0.1595020294189453
2170,0,0,0.16236305236816406
2171,0,0,0.16188621520996094
2172,0,0,0.164031982421875
2173,0,0,0.2837181091308594
2174,0,0,0.17189979553222656
2175,0,0,0.16760826110839844
2176,0,1,0.17786026000976562
2177,2,2,0.17213821411132812
2178,0,0,0.1671314239501953
2179,0,0,0.164031982421875
2180,2,2,0.16355514526367188
2181,0,0,0.16617774963378906
2182,0,0,0.16021728515625
2183,0,0,0.16307830810546875
2184,0,0,0.15974044799804688
2185,0,0,0.15926361083984375
2186,0,0,0.16498565673828125
2187,0,0,0.16832351684570312
2188,0,0,0.16427040100097656
2189,0,0,0.1633167266845703
2190,0,0,0.1621246337890625
2191,0,0,0.16355514526367188
2192,0,0,0.16427040100097656
2193,1,1,0.16021728515625
2194,0,0,0.16117095947265625
2195,0,0,0.18715858459472656
2196,0,0,0.164031982421875
2197,0,0,0.16164779663085938
2198,0,0,0.16379356384277344
2199,0,0,0.15878677368164062
2200,0,0,0.16045570373535156
2201,0,0,0.1633167266845703
2202,0,0,0.16069412231445312
2203,0,0,0.15878677368164062
2204,0,0,0.1628398895263672
2205,0,0,0.16260147094726562
2206,0,0,0.16045570373535156
2207,0,0,0.1590251922607422
2208,0,0,0.1609325408935547
2209,0,0,0.15807151794433594
2210,0,0,0.16069412231445312
2211,0,0,0.16260147094726562
2212,0,0,0.16379356384277344
2213,0,0,0.1628398895263672
2214,0,0,0.1621246337890625
2215,0,0,0.18334388732910156
2216,0,0,0.1666545867919922
2217,0,0,0.16498565673828125
2218,0,0,0.16498565673828125
2219,0,0,0.16045570373535156
2220,0,0,0.16498565673828125
2221,0,0,0.1614093780517578
2222,0,0,0.15974044799804688
2223,0,0,0.16117095947265625
2224,0,0,0.16188621520996094
2225,0,0,0.15997886657714844
2226,0,0,0.16379356384277344
2227,0,0,0.16069412231445312
2228,0,0,0.16069412231445312
2229,0,0,0.15926361083984375
2230,0,0,0.16045570373535156
2231,0,0,0.15997886657714844
2232,0,0,0.16188621520996094
2233,0,0,0.15997886657714844
2234,0,0,0.16117095947265625
2235,0,0,0.17905235290527344
2236,2,2,0.16546249389648438
2237,0,0,0.16164779663085938
2238,0,0,0.1633167266845703
2239,0,0,0.16164779663085938
2240,0,0,0.1614093780517578
2241,0,0,0.16379356384277344
2242,0,0,0.1647472381591797
2243,0,0,0.16164779663085938
2244,0,0,0.1614093780517578
2245,0,0,0.15854835510253906
2246,0,0,0.1647472381591797
2247,0,0,0.1590251922607422
2248,0,0,0.16188621520996094
2249,0,0,0.16188621520996094
2250,0,0,0.15997886657714844
2251,0,0,0.1590251922607422
2252,0,0,0.1633167266845703
2253,0,0,0.16021728515625
2254,0,0,0.1590251922607422
2255,0,0,0.3390312194824219
2256,0,0,0.17189979553222656
2257,0,0,0.2560615539550781
2258,2,2,0.1723766326904297
2259,0,0,0.16450881958007812
2260,0,0,0.16307830810546875
2261,0,0,0.16307830810546875
2262,0,0,0.15997886657714844
2263,0,0,0.16069412231445312
2264,0,0,0.1621246337890625
2265,0,0,0.1614093780517578
2266,0,0,0.16260147094726562
2267,0,0,0.16236305236816406
2268,0,0,0.1614093780517578
2269,0,0,0.1621246337890625
2270,0,1,0.1621246337890625
2271,0,0,0.1761913299560547
2272,0,0,0.19240379333496094
2273,0,0,0.21982192993164062
2274,0,1,0.19216537475585938
2275,0,0,0.18167495727539062
2276,0,0,0.1888275146484375
2277,0,0,0.19431114196777344
2278,0,0,0.18525123596191406
2279,0,0,0.18262863159179688
2280,0,0,0.18477439880371094
2281,0,0,0.19073486328125
2282,2,2,0.1914501190185547
2283,0,0,0.1964569091796875
2284,0,0,0.1933574676513672
2285,0,0,0.17786026000976562
2286,0,0,0.19407272338867188
2287,0,0,0.186920166015625
2288,0,0,0.17952919006347656
2289,0,0,0.2205371856689453
2290,0,0,0.19407272338867188
2291,0,0,0.17261505126953125
2292,0,0,0.16546249389648438
2293,0,0,0.16427040100097656
2294,0,0,0.15878677368164062
2295,0,0,0.16427040100097656
2296,0,0,0.16307830810546875
2297,0,0,0.16069412231445312
2298,0,0,0.16188621520996094
2299,0,0,0.15878677368164062
2300,0,0,0.16260147094726562
2301,0,0,0.16307830810546875
2302,0,0,0.1609325408935547
2303,0,0,0.16379356384277344
2304,2,2,0.164031982421875
2305,0,0,0.171661376953125
2306,0,0,0.18858909606933594
2307,0,0,0.18334388732910156
2308,0,0,0.213623046875
2309,0,0,0.19025802612304688
2310,0,0,0.18835067749023438
2311,0,0,0.19884109497070312
2312,0,0,0.17786026000976562
2313,2,2,0.1690387725830078
2314,0,0,0.1595020294189453
2315,0,0,0.1621246337890625
2316,0,0,0.1609325408935547
2317,0,0,0.15974044799804688
2318,0,0,0.16164779663085938
2319,0,0,0.16045570373535156
2320,2,2,0.16045570373535156
2321,3,3,0.16450881958007812
2322,0,0,0.1614093780517578
2323,0,0,0.16236305236816406
2324,0,0,0.15974044799804688
2325,0,0,0.15997886657714844
2326,0,0,0.1590251922607422
2327,0,0,0.24461746215820312
2328,0,0,0.3311634063720703
2329,0,0,0.3848075866699219
2330,0,0,0.24437904357910156
2331,0,0,0.23555755615234375
2332,2,2,0.1952648162841797
2333,2,2,0.20956993103027344
2334,0,0,0.23293495178222656
2335,0,0,0.19168853759765625
2336,0,0,0.16689300537109375
2337,0,0,0.20170211791992188
2338,0,0,0.1850128173828125
2339,0,0,0.20170211791992188
2340,1,1,0.186920166015625
2341,0,0,0.22649765014648438
2342,0,0,0.2243518829345703
2343,0,0,0.18668174743652344
2344,3,3,0.20647048950195312
2345,2,2,0.22077560424804688
2346,0,0,0.16045570373535156
2347,0,0,0.15735626220703125
2348,0,0,0.16188621520996094
2349,0,0,0.1628398895263672
2350,0,0,0.16188621520996094
2351,2,2,0.16188621520996094
2352,0,0,0.164031982421875
2353,0,0,0.16164779663085938
2354,0,0,0.15974044799804688
2355,0,0,0.1652240753173828
2356,0,0,0.16236305236816406
2357,0,0,0.16021728515625
2358,0,0,0.1614093780517578
2359,0,0,0.15997886657714844
2360,0,0,0.17952919006347656
2361,0,0,0.16236305236816406
2362,0,0,0.15974044799804688
2363,0,0,0.1595020294189453
2364,0,0,0.16069412231445312
2365,0,0,0.16045570373535156
2366,0,0,0.15807151794433594
2367,0,0,0.1614093780517578
2368,0,0,0.16164779663085938
2369,0,0,0.16379356384277344
2370,0,0,0.16236305236816406
2371,0,0,0.1628398895263672
2372,0,0,0.16021728515625
2373,0,0,0.16164779663085938
2374,2,0,0.16188621520996094
2375,0,0,0.16045570373535156
2376,0,0,0.16188621520996094
2377,0,0,0.15997886657714844
2378,0,0,0.15997886657714844
2379,0,0,0.1647472381591797
2380,0,0,0.18453598022460938
2381,0,0,0.16045570373535156
2382,2,2,0.16045570373535156
2383,0,0,0.15974044799804688
2384,0,0,0.16307830810546875
2385,0,0,0.1628398895263672
2386,0,0,0.16427040100097656
2387,0,0,0.1621246337890625
2388,0,0,0.16164779663085938
2389,1,1,0.1609325408935547
2390,0,0,0.16236305236816406
2391,0,0,0.16260147094726562
2392,0,0,0.16188621520996094
2393,0,0,0.16450881958007812
2394,0,0,0.1609325408935547
2395,0,0,0.15854835510253906
2396,0,0,0.1621246337890625
2397,0,0,0.1614093780517578
2398,0,0,0.16045570373535156
2399,0,0,0.16379356384277344
2400,0,0,0.2048015594482422
2401,0,0,0.1823902130126953
2402,0,0,0.16641616821289062
2403,0,0,0.1633167266845703
2404,2,2,0.16188621520996094
2405,0,0,0.1621246337890625
2406,0,0,0.3020763397216797
2407,0,0,0.1876354217529297
2408,0,0,0.25653839111328125
2409,0,0,0.17023086547851562
2410,0,0,0.17404556274414062
2411,0,0,0.1735687255859375
2412,0,0,0.16236305236816406
2413,0,0,0.16427040100097656
2414,1,1,0.1633167266845703
2415,0,0,0.1647472381591797
2416,0,0,0.16260147094726562
2417,0,0,0.1633167266845703
2418,0,0,0.19097328186035156
2419,2,2,0.16307830810546875
2420,0,0,0.16355514526367188
2421,0,0,0.16355514526367188
2422,0,0,0.1595020294189453
2423,0,0,0.16450881958007812
2424,0,0,0.16450881958007812
2425,0,0,0.1628398895263672
2426,0,0,0.1621246337890625
2427,2,2,0.164031982421875
2428,0,0,0.1609325408935547
2429,0,0,0.1609325408935547
2430,0,0,0.1609325408935547
2431,0,0,0.164031982421875
2432,0,0,0.15926361083984375
2433,0,0,0.16021728515625
2434,0,0,0.16260147094726562
2435,0,0,0.1628398895263672
2436,0,0,0.16570091247558594
2437,0,0,0.16236305236816406
2438,0,0,0.2613067626953125
2439,2,2,0.16617774963378906
2440,0,0,0.1652240753173828
2441,0,0,0.16069412231445312
2442,0,0,0.16069412231445312
2443,0,0,0.16045570373535156
2444,0,0,0.15854835510253906
2445,0,0,0.16117095947265625
2446,0,0,0.16307830810546875
2447,0,0,0.15997886657714844
2448,0,0,0.16307830810546875
2449,0,0,0.16188621520996094
2450,0,0,0.15997886657714844
2451,0,0,0.1621246337890625
2452,0,0,0.16164779663085938
2453,0,0,0.1614093780517578
2454,0,0,0.1633167266845703
2455,0,0,0.16164779663085938
2456,0,0,0.1614093780517578
2457,0,0,0.18715858459472656
2458,0,0,0.16570091247558594
2459,0,0,0.16427040100097656
2460,0,0,0.16188621520996094
2461,0,0,0.15926361083984375
2462,0,0,0.15807151794433594
2463,0,0,0.1633167266845703
2464,0,0,0.16045570373535156
2465,0,0,0.1647472381591797
2466,0,0,0.16236305236816406
2467,0,0,0.164031982421875
2468,0,0,0.1621246337890625
2469,0,0,0.16188621520996094
2470,0,0,0.16355514526367188
2471,0,0,0.16260147094726562
2472,0,0,0.15997886657714844
2473,0,0,0.16236305236816406
2474,1,1,0.16260147094726562
2475,0,0,0.16021728515625
2476,0,0,0.1590251922607422
2477,0,0,0.17714500427246094
2478,3,3,0.16498565673828125
2479,0,0,0.17023086547851562
2480,0,0,0.1633167266845703
2481,0,0,0.16069412231445312
2482,0,0,0.1633167266845703
2483,0,0,0.164031982421875
2484,0,0,0.16450881958007812
2485,0,0,0.16045570373535156
2486,0,0,0.16260147094726562
2487,0,0,0.2868175506591797
2488,0,0,0.17595291137695312
2489,0,0,0.16427040100097656
2490,0,0,0.1735687255859375
2491,0,0,0.16450881958007812
2492,0,0,0.1614093780517578
2493,2,2,0.16355514526367188
2494,0,0,0.1647472381591797
2495,0,0,0.1595020294189453
2496,0,0,0.17976760864257812
2497,0,0,0.16498565673828125
2498,0,0,0.16355514526367188
2499,0,0,0.16260147094726562
2500,0,0,0.164031982421875
2501,0,0,0.16236305236816406
2502,0,0,0.1621246337890625
2503,0,0,0.15974044799804688
2504,0,0,0.1609325408935547
2505,0,0,0.1614093780517578
2506,0,0,0.1590251922607422
2507,0,0,0.16164779663085938
2508,0,0,0.16546249389648438
2509,0,0,0.15878677368164062
2510,0,0,0.16164779663085938
2511,0,0,0.16045570373535156
2512,2,2,0.16117095947265625
2513,0,0,0.15854835510253906
2514,0,0,0.15878677368164062
2515,0,0,0.1633167266845703
2516,0,0,0.17976760864257812
2517,0,0,0.16021728515625
2518,0,0,0.16236305236816406
2519,0,0,0.15854835510253906
2520,0,0,0.1628398895263672
2521,2,2,0.1633167266845703
2522,2,2,0.16045570373535156
2523,1,1,0.16021728515625
2524,0,0,0.16260147094726562
2525,2,2,0.15974044799804688
2526,0,0,0.1595020294189453
2527,0,0,0.1590251922607422
2528,0,0,0.15997886657714844
2529,0,0,0.16164779663085938
2530,0,0,0.16260147094726562
2531,0,0,0.1614093780517578
2532,0,0,0.16045570373535156
2533,0,0,0.1583099365234375
2534,0,0,0.16236305236816406
2535,0,0,0.16021728515625
2536,0,0,0.1785755157470703
2537,0,0,0.16450881958007812
2538,0,0,0.1595020294189453
2539,0,0,0.16045570373535156
2540,0,0,0.16260147094726562
2541,0,0,0.16164779663085938
2542,1,1,0.1614093780517578
2543,2,2,0.1621246337890625
2544,0,0,0.15807151794433594
2545,0,0,0.1621246337890625
2546,0,0,0.16236305236816406
2547,0,0,0.16355514526367188
2548,0,0,0.16045570373535156
2549,0,0,0.16045570373535156
2550,0,0,0.1628398895263672
2551,0,0,0.16188621520996094
2552,0,0,0.16069412231445312
2553,0,0,0.16355514526367188
2554,0,0,0.1595020294189453
2555,0,0,0.15997886657714844
2556,0,0,0.17762184143066406
2557,0,0,0.19598007202148438
2558,0,0,0.2048015594482422
2559,0,0,0.19359588623046875
2560,2,2,0.18477439880371094
2561,0,0,0.17976760864257812
2562,2,2,0.1838207244873047
2563,0,0,0.19407272338867188
2564,0,0,0.18072128295898438
2565,0,0,0.1723766326904297
2566,0,0,0.18095970153808594
2567,0,0,0.17571449279785156
2568,0,0,0.19431114196777344
2569,0,0,0.1785755157470703
2570,2,2,0.19288063049316406
2571,0,0,0.18262863159179688
2572,0,0,0.2052783966064453
2573,1,1,0.1690387725830078
2574,0,0,0.15974044799804688
2575,0,0,0.1621246337890625
2576,0,0,0.15974044799804688
2577,0,0,0.15783309936523438
2578,0,0,0.15997886657714844
2579,2,2,0.16164779663085938
2580,2,2,0.16164779663085938
2581,0,0,0.1595020294189453
2582,2,2,0.15926361083984375
2583,0,0,0.16260147094726562
2584,0,0,0.1609325408935547
2585,0,0,0.16021728515625
2586,0,0,0.1628398895263672
2587,0,0,0.16260147094726562
2588,0,0,0.1614093780517578
2589,0,0,0.16188621520996094
2590,0,0,0.16117095947265625
2591,0,0,0.16021728515625
2592,0,0,0.1842975616455078
2593,0,0,0.1633167266845703
2594,3,3,0.1633167266845703
2595,0,0,0.16260147094726562
2596,0,0,0.16045570373535156
2597,0,0,0.1633167266845703
2598,0,0,0.15878677368164062
2599,0,0,0.16427040100097656
2600,0,0,0.16045570373535156
2601,0,0,0.15854835510253906
2602,2,2,0.1621246337890625
2603,0,0,0.16045570373535156
2604,0,0,0.15926361083984375
2605,0,0,0.15974044799804688
2606,0,0,0.15974044799804688
2607,0,0,0.1628398895263672
2608,2,2,0.1595020294189453
2609,1,1,0.16117095947265625
2610,0,0,0.16069412231445312
2611,0,0,0.16236305236816406
2612,0,0,0.17905235290527344
2613,0,1,0.16498565673828125
2614,0,0,0.1621246337890625
2615,0,0,0.16164779663085938
2616,0,0,0.16021728515625
2617,0,0,0.1621246337890625
2618,0,0,0.1633167266845703
2619,0,0,0.16188621520996094
2620,0,0,0.1628398895263672
2621,0,0,0.16117095947265625
2622,0,0,0.16236305236816406
2623,0,0,0.15974044799804688
2624,0,0,0.16689300537109375
2625,0,0,0.16236305236816406
2626,0,0,0.16045570373535156
2627,2,2,0.16236305236816406
2628,0,0,0.16021728515625
2629,0,0,0.1621246337890625
2630,0,0,0.16450881958007812
2631,0,0,0.15807151794433594
2632,0,0,0.25844573974609375
2633,0,0,0.1857280731201172
2634,0,0,0.16832351684570312
2635,2,2,0.16450881958007812
2636,0,0,0.1652240753173828
2637,0,0,0.1590251922607422
2638,0,0,0.16236305236816406
2639,0,0,0.1633167266845703
2640,3,3,0.16951560974121094
2641,0,0,0.18334388732910156
2642,0,0,0.17786026000976562
2643,0,0,0.18095970153808594
2644,0,0,0.1842975616455078
2645,0,0,0.1804828643798828
2646,0,0,0.1804828643798828
2647,0,0,0.35071372985839844
2648,0,3,0.43201446533203125
2649,0,0,0.23484230041503906
2650,0,0,0.21338462829589844
2651,0,0,0.20170211791992188
2652,0,0,0.21767616271972656
2653,2,2,0.2224445343017578
2654,0,0,0.21457672119140625
2655,0,0,0.194549560546875
2656,0,0,0.18453598022460938
2657,0,0,0.1933574676513672
2658,2,2,0.1914501190185547
2659,0,0,0.1971721649169922
2660,0,0,0.1914501190185547
2661,0,0,0.19431114196777344
2662,0,0,0.18858909606933594
2663,0,0,0.2243518829345703
2664,0,0,0.1685619354248047
2665,2,2,0.1811981201171875
2666,0,0,0.18024444580078125
2667,0,0,1.0607242584228516
2668,0,3,0.21529197692871094
2669,0,0,0.1857280731201172
2670,0,0,0.18262863159179688
2671,0,0,0.20051002502441406
2672,0,0,0.19359588623046875
2673,0,0,0.19860267639160156
2674,0,0,0.21028518676757812
2675,0,0,0.2779960632324219
2676,0,0,0.19693374633789062
2677,0,0,0.24318695068359375
2678,0,0,0.30493736267089844
2679,0,0,0.1957416534423828
2680,0,0,0.179290771484375
2681,0,0,0.17571449279785156
2682,0,0,0.16570091247558594
2683,0,0,0.17786026000976562
2684,0,0,0.186920166015625
2685,0,0,0.1857280731201172
2686,1,1,0.21219253540039062
2687,0,0,0.1819133758544922
2688,0,0,0.18548965454101562
2689,0,0,0.4181861877441406
2690,0,0,0.21839141845703125
2691,0,0,0.2090930938720703
2692,0,0,0.2052783966064453
2693,0,0,0.1983642578125
2694,0,0,0.2372264862060547
2695,0,0,0.21266937255859375
2696,2,2,0.20885467529296875
2697,0,0,0.18358230590820312
2698,0,0,0.21219253540039062
2699,0,0,0.1800060272216797
2700,0,0,0.17452239990234375
2701,0,0,0.17404556274414062
2702,0,0,0.17499923706054688
2703,0,0,0.3604888916015625
2704,0,0,0.22935867309570312
2705,0,0,0.30922889709472656
2706,0,0,0.19788742065429688
2707,0,0,0.19860267639160156
2708,0,0,0.20551681518554688
2709,0,0,0.22292137145996094
2710,0,0,0.21457672119140625
2711,0,0,0.19240379333496094
2712,0,0,0.20694732666015625
2713,0,0,0.2117156982421875
2714,0,0,0.2453327178955078
2715,0,0,0.21147727966308594
2716,0,0,0.2276897430419922
2717,2,2,0.2086162567138672
2718,0,0,0.1842975616455078
2719,0,0,0.1723766326904297
2720,0,0,0.19359588623046875
2721,0,0,0.20432472229003906
2722,0,0,0.21958351135253906
2723,0,0,0.18596649169921875
2724,0,0,0.18668174743652344
2725,0,0,0.19025802612304688
2726,0,0,0.1933574676513672
2727,0,0,0.19049644470214844
2728,0,0,0.2105236053466797
2729,0,0,0.2002716064453125
2730,2,2,0.1862049102783203
2731,0,0,0.1742839813232422
2732,0,0,0.35309791564941406
2733,0,0,0.19669532775878906
2734,0,0,0.1804828643798828
2735,0,0,0.16808509826660156
2736,0,0,0.17452239990234375
2737,0,0,0.16450881958007812
2738,0,0,0.1666545867919922
2739,0,0,0.16498565673828125
2740,0,0,0.16427040100097656
2741,0,0,0.1633167266845703
2742,0,0,0.16117095947265625
2743,0,0,0.15974044799804688
2744,0,0,0.16689300537109375
2745,0,0,0.16570091247558594
2746,0,0,0.1621246337890625
2747,0,0,0.1621246337890625
2748,0,3,0.16069412231445312
2749,0,0,0.16188621520996094
2750,0,0,0.16069412231445312
2751,0,0,0.17571449279785156
2752,0,0,0.1652240753173828
2753,0,0,0.17023086547851562
2754,0,0,0.17881393432617188
2755,0,0,0.1838207244873047
2756,0,0,0.1823902130126953
2757,0,0,0.1800060272216797
2758,0,0,0.186920166015625
2759,0,0,0.1881122589111328
2760,0,0,0.17762184143066406
2761,0,0,0.16832351684570312
2762,2,2,0.16045570373535156
2763,0,0,0.16236305236816406
2764,0,0,0.16880035400390625
2765,0,0,0.1666545867919922
2766,0,0,0.1647472381591797
2767,0,0,0.1633167266845703
2768,0,0,0.24652481079101562
2769,0,0,0.20241737365722656
2770,0,0,0.194549560546875
2771,0,0,0.36525726318359375
2772,0,0,0.2257823944091797
2773,0,0,0.2238750457763672
2774,0,0,0.20694732666015625
2775,0,0,0.18453598022460938
2776,2,2,0.19216537475585938
2777,2,2,0.1964569091796875
2778,0,0,0.2040863037109375
2779,0,0,0.2243518829345703
2780,0,0,0.20432472229003906
2781,0,0,0.21457672119140625
2782,0,0,0.2694129943847656
2783,0,0,0.21386146545410156
2784,0,0,0.22172927856445312
2785,0,0,0.20766258239746094
2786,0,0,0.20003318786621094
2787,0,0,0.1926422119140625
2788,0,0,0.2582073211669922
2789,0,0,0.20074844360351562
2790,0,1,0.19812583923339844
2791,0,0,0.20074844360351562
2792,0,0,0.19860267639160156
2793,0,0,0.1933574676513672
2794,0,0,0.18668174743652344
2795,0,0,0.19121170043945312
2796,0,0,0.2167224884033203
2797,0,0,0.2994537353515625
2798,0,0,0.24366378784179688
2799,0,0,0.18906593322753906
2800,0,0,0.20742416381835938
2801,0,0,0.22649765014648438
2802,0,0,0.1862049102783203
2803,0,0,0.5052089691162109
2804,0,0,0.23818016052246094
2805,0,0,0.225067138671875
2806,0,0,0.21839141845703125
2807,0,0,0.2162456512451172
2808,0,0,0.18835067749023438
2809,1,1,0.16760826110839844
2810,0,0,0.19550323486328125
2811,0,0,0.1678466796875
2812,0,0,0.20742416381835938
2813,0,0,0.19216537475585938
2814,1,1,0.16760826110839844
2815,2,2,0.18644332885742188
2816,0,0,0.16260147094726562
2817,0,1,0.1671314239501953
2818,0,0,0.16307830810546875
2819,2,2,0.16260147094726562
2820,0,0,0.16236305236816406
2821,0,0,0.18286705017089844
2822,2,2,0.1678466796875
2823,0,0,0.16260147094726562
2824,0,0,0.16164779663085938
2825,0,0,0.16045570373535156
2826,0,0,0.16498565673828125
2827,0,0,0.164031982421875
2828,0,0,0.19431114196777344
2829,0,0,0.16546249389648438
2830,0,0,0.16069412231445312
2831,0,0,0.15997886657714844
2832,0,0,0.16188621520996094
2833,0,0,0.15974044799804688
2834,0,0,0.16164779663085938
2835,0,0,0.21505355834960938
2836,0,0,0.3037452697753906
2837,0,0,0.20313262939453125
2838,0,0,0.19121170043945312
2839,0,0,0.19407272338867188
2840,0,0,0.19550323486328125
2841,2,2,0.1823902130126953
2842,0,0,0.18167495727539062
2843,0,0,0.1671314239501953
2844,2,2,0.2875328063964844
2845,0,0,0.1938343048095703
2846,0,0,0.1895427703857422
2847,0,0,0.18262863159179688
2848,0,0,0.16808509826660156
2849,0,0,0.16021728515625
2850,0,0,0.16450881958007812
2851,0,0,0.1647472381591797
2852,0,0,0.16307830810546875
2853,0,0,0.15997886657714844
2854,0,1,0.16307830810546875
2855,0,0,0.15878677368164062
2856,0,0,0.16021728515625
2857,0,0,0.16260147094726562
2858,0,0,0.15997886657714844
2859,0,0,0.16021728515625
2860,1,1,0.16117095947265625
2861,0,0,0.16069412231445312
2862,0,0,0.1621246337890625
2863,0,0,0.19121170043945312
2864,2,2,0.16450881958007812
2865,0,0,0.15974044799804688
2866,1,1,0.1652240753173828
2867,0,0,0.15854835510253906
2868,0,0,0.16021728515625
2869,0,0,0.15926361083984375
2870,0,0,0.16069412231445312
2871,0,0,0.15854835510253906
2872,0,0,0.1609325408935547
2873,0,0,0.1614093780517578
2874,0,0,0.1628398895263672
2875,0,0,0.1647472381591797
2876,0,0,0.1647472381591797
2877,0,0,0.15854835510253906
2878,0,0,0.1633167266845703
2879,0,0,0.1583099365234375
2880,0,0,0.16045570373535156
2881,0,0,0.16546249389648438
2882,2,3,0.1614093780517578
2883,0,0,0.179290771484375
2884,0,0,0.16641616821289062
2885,0,0,0.16355514526367188
2886,0,0,0.16617774963378906
2887,2,2,0.1652240753173828
2888,0,0,0.16236305236816406
2889,0,0,0.1609325408935547
2890,0,0,0.16117095947265625
2891,0,0,0.16188621520996094
2892,0,0,0.21839141845703125
2893,0,0,0.18024444580078125
2894,3,3,0.1804828643798828
2895,0,0,0.18167495727539062
2896,0,0,0.1685619354248047
2897,0,0,0.16069412231445312
2898,0,0,0.16164779663085938
2899,0,0,0.1671314239501953
2900,0,0,0.15878677368164062
2901,0,0,0.16069412231445312
2902,1,1,0.18978118896484375
2903,0,0,0.16236305236816406
2904,0,0,0.1633167266845703
2905,0,0,0.16045570373535156
2906,0,0,0.1583099365234375
2907,0,0,0.15997886657714844
2908,0,0,0.1583099365234375
2909,0,0,0.15974044799804688
2910,0,0,0.16117095947265625
2911,2,2,0.1614093780517578
2912,0,0,0.2913475036621094
2913,0,0,0.186920166015625
2914,0,0,0.2713203430175781
2915,3,0,0.19788742065429688
2916,0,0,0.18596649169921875
2917,0,0,0.19097328186035156
2918,0,0,0.19359588623046875
2919,0,0,0.3070831298828125
2920,0,0,0.1971721649169922
2921,2,2,0.19598007202148438
2922,0,0,0.19359588623046875
2923,0,0,0.16832351684570312
2924,0,0,0.1621246337890625
2925,0,0,0.1628398895263672
2926,0,0,0.16307830810546875
2927,0,0,0.15974044799804688
2928,0,0,0.16236305236816406
2929,1,1,0.164031982421875
2930,0,0,0.16021728515625
2931,0,0,0.1590251922607422
2932,3,3,0.16260147094726562
2933,0,0,0.16164779663085938
2934,0,0,0.16117095947265625
2935,0,0,0.16021728515625
2936,0,1,0.16951560974121094
2937,0,0,0.1647472381591797
2938,0,0,0.19311904907226562
2939,0,0,0.16164779663085938
2940,0,0,0.16164779663085938
2941,2,2,0.16117095947265625
2942,0,0,0.16188621520996094
2943,0,0,0.1652240753173828
2944,0,0,0.15878677368164062
2945,1,1,0.1595020294189453
2946,0,0,0.15807151794433594
2947,2,2,0.1609325408935547
2948,0,0,0.16021728515625
2949,2,2,0.1628398895263672
2950,0,0,0.16045570373535156
2951,0,0,0.15974044799804688
2952,0,0,0.16069412231445312
2953,0,0,0.16045570373535156
2954,0,0,0.1590251922607422
2955,0,0,0.16069412231445312
2956,0,0,0.1628398895263672
2957,0,0,0.16236305236816406
2958,2,2,0.17881393432617188
2959,0,0,0.17213821411132812
2960,0,0,0.1621246337890625
2961,0,0,0.164031982421875
2962,0,0,0.16427040100097656
2963,0,0,0.1614093780517578
2964,0,0,0.1609325408935547
2965,0,0,0.1595020294189453
2966,0,0,0.15974044799804688
2967,0,0,0.23627281188964844
2968,0,0,0.18095970153808594
2969,0,0,0.18167495727539062
2970,0,0,0.18334388732910156
2971,0,0,0.16570091247558594
2972,2,2,0.1609325408935547
2973,0,0,0.16069412231445312
2974,0,0,0.16164779663085938
2975,0,0,0.16236305236816406
2976,0,0,0.1633167266845703
2977,0,0,0.1919269561767578
2978,1,1,0.1659393310546875
2979,2,2,0.16069412231445312
2980,0,0,0.15783309936523438
2981,0,0,0.16045570373535156
2982,0,0,0.164031982421875
2983,0,0,0.1780986785888672
2984,0,0,0.16260147094726562
2985,0,0,0.1614093780517578
2986,0,0,0.16117095947265625
2987,0,0,0.16117095947265625
2988,0,0,0.1621246337890625
2989,0,0,0.1621246337890625
2990,3,3,0.30350685119628906
2991,0,0,0.17714500427246094
2992,2,2,0.2741813659667969
2993,0,0,0.19598007202148438
2994,0,0,0.3025531768798828
2995,2,2,0.209808349609375
2996,0,0,0.20885467529296875
2997,0,0,0.20813941955566406
2998,0,0,0.18858909606933594
2999,0,0,0.1652240753173828
3000,0,0,0.1747608184814453
3001,0,0,0.16355514526367188
3002,2,2,0.18453598022460938
3003,0,0,0.1659393310546875
3004,2,2,0.16260147094726562
3005,0,0,0.16498565673828125
3006,0,0,0.16188621520996094
3007,0,0,0.16379356384277344
3008,0,0,0.1590251922607422
3009,0,0,0.1621246337890625
3010,0,0,0.16450881958007812
3011,0,0,0.1595020294189453
3012,0,0,0.19550323486328125
3013,0,0,0.16736984252929688
3014,2,2,0.16307830810546875
3015,0,0,0.16021728515625
3016,0,0,0.16188621520996094
3017,0,0,0.15926361083984375
3018,0,0,0.15974044799804688
3019,0,0,0.15807151794433594
3020,1,1,0.16188621520996094
3021,0,0,0.16069412231445312
3022,0,0,0.16164779663085938
3023,0,0,0.16307830810546875
3024,0,0,0.1609325408935547
3025,0,0,0.15878677368164062
3026,0,0,0.1595020294189453
3027,0,0,0.16236305236816406
3028,0,0,0.1628398895263672
3029,0,0,0.1633167266845703
3030,0,0,0.1609325408935547
3031,0,0,0.15926361083984375
3032,0,0,0.17786026000976562
3033,0,0,0.1633167266845703
3034,0,0,0.1628398895263672
3035,0,0,0.16021728515625
3036,0,0,0.1633167266845703
3037,2,2,0.16117095947265625
3038,0,0,0.16355514526367188
3039,0,0,0.1609325408935547
3040,0,0,0.16021728515625
3041,2,2,0.16117095947265625
3042,0,0,0.18310546875
3043,0,0,0.18644332885742188
3044,0,0,0.18453598022460938
3045,0,0,0.17213821411132812
3046,0,0,0.16164779663085938
3047,0,0,0.164031982421875
3048,0,0,0.1628398895263672
3049,0,0,0.16307830810546875
3050,0,0,0.15926361083984375
3051,0,0,0.1895427703857422
3052,0,0,0.16570091247558594
3053,0,0,0.16379356384277344
3054,0,0,0.15974044799804688
3055,0,0,0.15854835510253906
3056,0,0,0.1621246337890625
3057,1,1,0.16236305236816406
3058,0,0,0.1633167266845703
3059,0,0,0.16117095947265625
3060,0,0,0.1609325408935547
3061,0,0,0.15878677368164062
3062,0,0,0.1590251922607422
3063,0,0,0.16617774963378906
3064,0,0,0.1609325408935547
3065,0,0,0.16498565673828125
3066,0,0,0.16450881958007812
3067,0,0,0.1614093780517578
3068,0,0,0.30493736267089844
3069,1,1,0.18215179443359375
3070,0,0,0.31065940856933594
3071,0,0,0.19979476928710938
3072,0,0,0.18405914306640625
3073,0,0,0.1881122589111328
3074,0,0,0.18668174743652344
3075,0,0,0.20384788513183594
3076,0,0,0.18095970153808594
3077,0,0,0.17213821411132812
3078,0,0,0.17523765563964844
3079,0,0,0.1628398895263672
3080,0,0,0.1652240753173828
3081,0,0,0.16069412231445312
3082,0,0,0.16069412231445312
3083,0,0,0.16260147094726562
3084,0,0,0.16260147094726562
3085,0,0,0.16117095947265625
3086,0,0,0.1685619354248047
3087,0,0,0.1609325408935547
3088,0,0,0.20122528076171875
3089,0,0,0.16427040100097656
3090,0,0,0.1609325408935547
3091,0,0,0.15926361083984375
3092,0,0,0.1590251922607422
3093,0,0,0.1652240753173828
3094,3,3,0.16570091247558594
3095,0,0,0.15997886657714844
3096,0,0,0.1621246337890625
3097,0,0,0.16045570373535156
3098,0,0,0.164031982421875
3099,0,0,0.16355514526367188
3100,0,0,0.16236305236816406
3101,0,0,0.15878677368164062
3102,0,0,0.16188621520996094
3103,0,0,0.15926361083984375
3104,2,2,0.16307830810546875
3105,0,0,0.16427040100097656
3106,0,0,0.1609325408935547
3107,0,0,0.1628398895263672
3108,0,0,0.17976760864257812
3109,0,0,0.1633167266845703
3110,2,2,0.16379356384277344
3111,0,0,0.1678466796875
3112,0,0,0.16355514526367188
3113,0,0,0.1647472381591797
3114,0,0,0.1633167266845703
3115,0,0,0.16164779663085938
3116,0,0,0.1633167266845703
3117,0,0,0.1614093780517578
3118,0,0,0.16498565673828125
3119,0,0,0.1590251922607422
3120,0,0,0.16355514526367188
3121,0,0,0.16951560974121094
3122,0,0,0.16260147094726562
3123,2,2,0.164031982421875
3124,0,0,0.16069412231445312
3125,0,0,0.16045570373535156
3126,0,0,0.1621246337890625
3127,0,0,0.1609325408935547
3128,2,2,0.18334388732910156
3129,0,0,0.164031982421875
3130,0,0,0.16355514526367188
3131,0,0,0.16117095947265625
3132,0,0,0.16760826110839844
3133,0,0,0.16307830810546875
3134,0,0,0.1614093780517578
3135,0,0,0.1647472381591797
3136,2,2,0.16570091247558594
3137,0,0,0.1614093780517578
3138,0,0,0.16236305236816406
3139,0,0,0.16355514526367188
3140,0,0,0.1633167266845703
3141,0,0,0.16021728515625
3142,2,2,0.16164779663085938
3143,0,0,0.16164779663085938
3144,0,0,0.16117095947265625
3145,0,0,0.15807151794433594
3146,0,0,0.1609325408935547
3147,0,0,0.16236305236816406
3148,0,0,0.3333091735839844
3149,0,0,0.18310546875
3150,0,0,0.2765655517578125
3151,0,0,0.1933574676513672
3152,0,0,0.16736984252929688
3153,0,0,0.1690387725830078
3154,0,0,0.164031982421875
3155,0,0,0.1614093780517578
3156,2,2,0.1633167266845703
3157,0,0,0.1633167266845703
3158,0,0,0.16021728515625
3159,0,0,0.16069412231445312
3160,0,0,0.1659393310546875
3161,0,0,0.16164779663085938
3162,0,0,0.1609325408935547
3163,0,0,0.16117095947265625
3164,0,0,0.16307830810546875
3165,0,0,0.1614093780517578
3166,3,3,0.1933574676513672
3167,0,0,0.16236305236816406
3168,0,0,0.16260147094726562
3169,0,0,0.1628398895263672
3170,0,0,0.164031982421875
3171,0,0,0.16236305236816406
3172,0,0,0.1609325408935547
3173,0,0,0.16379356384277344
3174,0,0,0.16498565673828125
3175,0,0,0.16260147094726562
3176,0,0,0.16260147094726562
3177,0,0,0.17404556274414062
3178,0,0,0.18835067749023438
3179,0,0,0.186920166015625
3180,0,0,0.18167495727539062
3181,2,2,0.18596649169921875
3182,0,0,0.18143653869628906
3183,0,0,0.1976490020751953
3184,0,0,0.18668174743652344
3185,0,0,0.19311904907226562
3186,0,0,0.18644332885742188
3187,0,0,0.18262863159179688
3188,2,2,0.18930435180664062
3189,0,0,0.18548965454101562
3190,0,0,0.1742839813232422
3191,0,0,0.16379356384277344
3192,2,2,0.16379356384277344
3193,0,0,0.16617774963378906
3194,0,0,0.16260147094726562
3195,0,0,0.16355514526367188
3196,0,0,0.1621246337890625
3197,1,1,0.17333030700683594
3198,0,3,0.1633167266845703
3199,0,0,0.16045570373535156
3200,0,0,0.16117095947265625
3201,0,0,0.1614093780517578
3202,0,0,0.16379356384277344
3203,0,0,0.19216537475585938
3204,0,0,0.16641616821289062
3205,0,0,0.1628398895263672
3206,0,0,0.1628398895263672
3207,0,0,0.16188621520996094
3208,0,0,0.16260147094726562
3209,0,0,0.15974044799804688
3210,0,0,0.16379356384277344
3211,0,0,0.16546249389648438
3212,0,0,0.16927719116210938
3213,0,0,0.18310546875
3214,0,0,0.18024444580078125
3215,0,0,0.179290771484375
3216,0,0,0.17762184143066406
3217,0,0,0.18262863159179688
3218,0,0,0.17642974853515625
3219,0,0,0.17380714416503906
3220,0,0,0.16880035400390625
3221,0,0,0.16045570373535156
3222,0,0,0.19550323486328125
3223,0,0,0.16427040100097656
3224,0,0,0.1614093780517578
3225,2,2,0.3085136413574219
3226,0,0,0.20599365234375
3227,0,0,0.2734661102294922
3228,2,2,0.17142295837402344
3229,0,0,0.16236305236816406
3230,0,0,0.16188621520996094
3231,0,0,0.1633167266845703
3232,0,0,0.1628398895263672
3233,0,0,0.16355514526367188
3234,0,0,0.17189979553222656
3235,0,0,0.18739700317382812
3236,0,0,0.18787384033203125
3237,0,0,0.1780986785888672
3238,0,0,0.18596649169921875
3239,0,0,0.2288818359375
3240,0,0,0.1709461212158203
3241,0,0,0.1659393310546875
3242,0,0,0.1647472381591797
3243,0,0,0.16427040100097656
3244,2,2,0.1628398895263672
3245,0,0,0.15974044799804688
3246,0,0,0.1647472381591797
3247,0,0,0.16427040100097656
3248,0,0,0.16427040100097656
3249,0,0,0.15974044799804688
3250,2,2,0.1647472381591797
3251,0,0,0.16355514526367188
3252,2,2,0.1633167266845703
3253,0,0,0.1628398895263672
3254,0,0,0.16307830810546875
3255,0,0,0.16164779663085938
3256,0,0,0.15878677368164062
3257,0,0,0.1628398895263672
3258,0,0,0.1609325408935547
3259,0,0,0.16498565673828125
3260,0,0,0.15997886657714844
3261,0,0,0.16188621520996094
3262,0,0,0.16021728515625
3263,0,0,0.16808509826660156
3264,0,0,0.16164779663085938
3265,0,0,0.16641616821289062
3266,0,0,0.1633167266845703
3267,0,0,0.1621246337890625
3268,0,0,0.15926361083984375
3269,0,0,0.1621246337890625
3270,0,0,0.16069412231445312
3271,0,0,0.16069412231445312
3272,0,0,0.1590251922607422
3273,0,0,0.16736984252929688
3274,0,0,0.16045570373535156
3275,0,0,0.16045570373535156
3276,0,0,0.1595020294189453
3277,0,0,0.1659393310546875
3278,0,0,0.1609325408935547
3279,0,0,0.16379356384277344
3280,0,0,0.16260147094726562
3281,0,0,0.16498565673828125
3282,0,0,0.1614093780517578
3283,0,1,0.1621246337890625
3284,0,0,0.16021728515625
3285,0,0,0.15878677368164062
3286,0,0,0.16307830810546875
3287,0,0,0.16021728515625
3288,0,0,0.164031982421875
3289,3,3,0.1647472381591797
3290,0,0,0.16069412231445312
3291,0,1,0.1633167266845703
3292,0,0,0.1628398895263672
3293,0,0,0.16450881958007812
3294,0,0,0.16188621520996094
3295,0,0,0.164031982421875
3296,0,0,0.1633167266845703
3297,0,0,0.15926361083984375
3298,0,0,0.1614093780517578
3299,0,0,0.17762184143066406
3300,0,0,0.22411346435546875
3301,0,0,0.18858909606933594
3302,0,0,0.16641616821289062
3303,0,0,0.2086162567138672
3304,0,0,0.3609657287597656
3305,0,0,0.19168853759765625
3306,2,2,0.29587745666503906
3307,0,0,0.2167224884033203
3308,0,0,0.2315044403076172
3309,0,0,0.1876354217529297
3310,2,2,0.20241737365722656
3311,1,1,0.1876354217529297
3312,0,0,0.16736984252929688
3313,2,2,0.1876354217529297
3314,0,0,0.17023086547851562
3315,0,0,0.202178955078125
3316,0,0,0.18858909606933594
3317,0,0,0.16641616821289062
3318,0,0,0.20265579223632812
3319,0,0,0.17404556274414062
3320,0,0,0.1628398895263672
3321,0,0,0.16188621520996094
3322,0,0,0.16021728515625
3323,0,0,0.1595020294189453
3324,0,0,0.16164779663085938
3325,0,0,0.16117095947265625
3326,0,0,0.1614093780517578
3327,0,0,0.1647472381591797
3328,0,0,0.16236305236816406
3329,0,0,0.1590251922607422
3330,0,0,0.1614093780517578
3331,0,0,0.15974044799804688
3332,0,0,0.1800060272216797
3333,0,0,0.1785755157470703
3334,0,0,0.1659393310546875
3335,0,0,0.17213821411132812
3336,0,0,0.16450881958007812
3337,0,0,0.1628398895263672
3338,0,0,0.16188621520996094
3339,0,0,0.16188621520996094
3340,0,0,0.15878677368164062
3341,0,0,0.20241737365722656
3342,0,0,0.16164779663085938
3343,2,2,0.1609325408935547
3344,0,0,0.16021728515625
3345,0,0,0.15854835510253906
3346,0,0,0.16498565673828125
3347,0,0,0.16641616821289062
3348,0,0,0.1621246337890625
3349,0,0,0.1633167266845703
3350,0,0,0.16188621520996094
3351,0,0,0.16117095947265625
3352,0,0,0.18095970153808594
3353,0,0,0.1590251922607422
3354,0,0,0.16188621520996094
3355,0,0,0.16117095947265625
3356,0,0,0.15926361083984375
3357,0,0,0.1633167266845703
3358,2,2,0.1628398895263672
3359,0,0,0.15997886657714844
3360,0,0,0.16045570373535156
3361,2,2,0.16236305236816406
3362,2,2,0.15974044799804688
3363,0,0,0.16045570373535156
3364,0,0,0.164031982421875
3365,0,0,0.1628398895263672
3366,0,0,0.16307830810546875
3367,0,0,0.1614093780517578
3368,0,0,0.1609325408935547
3369,0,0,0.16236305236816406
3370,0,0,0.16045570373535156
3371,0,0,0.15926361083984375
3372,0,0,0.1780986785888672
3373,0,0,0.164031982421875
3374,2,2,0.16236305236816406
3375,0,0,0.16117095947265625
3376,0,0,0.1633167266845703
3377,0,0,0.1614093780517578
3378,0,0,0.16045570373535156
3379,0,0,0.16236305236816406
3380,0,0,0.16379356384277344
3381,0,0,0.1628398895263672
3382,0,0,0.28824806213378906
3383,0,0,0.1709461212158203
3384,0,0,0.24318695068359375
3385,0,0,0.16832351684570312
3386,0,0,0.16570091247558594
3387,0,0,0.1590251922607422
3388,0,0,0.1628398895263672
3389,1,1,0.16307830810546875
3390,0,0,0.29850006103515625
3391,0,0,0.19049644470214844
3392,0,0,0.186920166015625
3393,2,2,0.18024444580078125
3394,0,0,0.17642974853515625
3395,0,0,0.19812583923339844
3396,0,0,0.2009868621826172
3397,0,0,0.20384788513183594
3398,0,0,0.1957416534423828
3399,0,0,0.19598007202148438
3400,0,0,0.19049644470214844
3401,0,0,0.1862049102783203
3402,0,0,0.19288063049316406
3403,0,0,0.20194053649902344
3404,0,0,0.1895427703857422
3405,2,2,0.17333030700683594
3406,2,2,0.20742416381835938
3407,0,0,0.18095970153808594
3408,0,0,0.17547607421875
3409,0,0,0.18262863159179688
3410,2,2,0.1881122589111328
3411,0,0,0.18787384033203125
3412,0,0,0.1900196075439453
3413,0,0,0.19359588623046875
3414,0,0,0.18596649169921875
3415,2,2,0.18215179443359375
3416,0,0,0.1773834228515625
3417,0,0,0.16951560974121094
3418,0,0,0.16355514526367188
3419,0,0,0.16689300537109375
3420,1,0,0.164031982421875
3421,0,0,0.16021728515625
3422,0,0,0.16045570373535156
3423,0,0,0.1652240753173828
3424,0,0,0.194549560546875
3425,0,0,0.16546249389648438
3426,0,0,0.16307830810546875
3427,0,0,0.16260147094726562
3428,0,0,0.1595020294189453
3429,0,0,0.1590251922607422
3430,0,0,0.1628398895263672
3431,2,2,0.15997886657714844
3432,0,0,0.15926361083984375
3433,0,0,0.16427040100097656
3434,2,2,0.16021728515625
3435,0,0,0.1628398895263672
3436,0,0,0.16617774963378906
3437,0,0,0.16260147094726562
3438,0,0,0.16021728515625
3439,0,0,0.16260147094726562
3440,0,0,0.1583099365234375
3441,2,2,0.15997886657714844
3442,0,0,0.16045570373535156
3443,0,0,0.16260147094726562
3444,0,0,0.1823902130126953
3445,0,0,0.1647472381591797
3446,0,0,0.16427040100097656
3447,0,0,0.1628398895263672
3448,0,0,0.16117095947265625
3449,0,0,0.1609325408935547
3450,0,0,0.16045570373535156
3451,0,0,0.15878677368164062
3452,0,0,0.164031982421875
3453,0,0,0.1609325408935547
3454,0,0,0.16188621520996094
3455,0,0,0.15926361083984375
3456,0,0,0.15974044799804688
3457,0,0,0.2944469451904297
3458,0,0,0.17070770263671875
3459,0,0,0.16307830810546875
3460,0,0,0.25582313537597656
3461,0,0,0.16689300537109375
3462,0,0,0.1666545867919922
3463,0,0,0.2586841583251953
3464,0,0,0.16450881958007812
3465,0,0,0.1609325408935547
3466,0,0,0.1633167266845703
3467,0,0,0.15997886657714844
3468,2,2,0.16427040100097656
3469,0,0,0.16570091247558594
3470,0,0,0.1614093780517578
3471,0,0,0.16450881958007812
3472,2,2,0.16164779663085938
3473,0,0,0.15997886657714844
3474,0,0,0.164031982421875
3475,0,0,0.1704692840576172
3476,0,0,0.1647472381591797
3477,0,0,0.15997886657714844
3478,0,0,0.15997886657714844
3479,0,0,0.1647472381591797
3480,0,0,0.164031982421875
3481,0,0,0.16069412231445312
3482,0,0,0.2040863037109375
3483,0,0,0.1628398895263672
3484,0,0,0.1671314239501953
3485,0,0,0.1647472381591797
3486,0,0,0.16355514526367188
3487,0,0,0.17142295837402344
3488,0,0,0.16307830810546875
3489,0,0,0.1614093780517578
3490,0,0,0.16021728515625
3491,0,0,0.1614093780517578
3492,0,0,0.16021728515625
3493,0,0,0.1633167266845703
3494,0,0,0.1633167266845703
3495,0,0,0.16546249389648438
3496,0,0,0.16379356384277344
3497,2,2,0.16236305236816406
3498,0,0,0.15997886657714844
3499,0,0,0.1614093780517578
3500,0,0,0.16570091247558594
3501,0,0,0.1628398895263672
3502,0,0,0.18072128295898438
3503,0,0,0.16236305236816406
3504,0,0,0.16355514526367188
3505,0,0,0.1621246337890625
3506,0,0,0.16379356384277344
3507,0,0,0.1614093780517578
3508,0,0,0.1609325408935547
3509,1,1,0.1621246337890625
3510,0,0,0.1590251922607422
3511,0,0,0.16307830810546875
3512,0,0,0.1609325408935547
3513,0,0,0.1628398895263672
3514,2,0,0.16307830810546875
3515,0,0,0.1614093780517578
3516,0,0,0.1621246337890625
3517,0,0,0.16379356384277344
3518,0,0,0.16236305236816406
3519,0,0,0.16355514526367188
3520,0,0,0.16260147094726562
3521,0,0,0.16379356384277344
3522,2,2,0.18024444580078125
3523,0,0,0.16379356384277344
3524,0,0,0.16355514526367188
3525,0,0,0.1590251922607422
3526,0,0,0.16307830810546875
3527,0,0,0.16427040100097656
3528,0,0,0.1595020294189453
3529,0,0,0.16260147094726562
3530,3,3,0.16260147094726562
3531,0,0,0.16188621520996094
3532,2,2,0.16450881958007812
3533,0,0,0.16355514526367188
3534,2,2,0.16164779663085938
3535,0,0,0.1614093780517578
3536,0,0,0.16427040100097656
3537,0,0,0.1621246337890625
3538,0,0,0.16188621520996094
3539,0,0,0.2808570861816406
3540,0,0,0.1628398895263672
3541,0,0,0.2551078796386719
3542,0,0,0.17118453979492188
3543,0,0,0.1633167266845703
3544,0,0,0.16117095947265625
3545,0,0,0.1609325408935547
3546,2,2,0.16045570373535156
3547,0,0,0.15807151794433594
3548,0,0,0.16164779663085938
3549,0,0,0.15878677368164062
3550,0,0,0.1609325408935547
3551,0,0,0.16117095947265625
3552,0,0,0.16236305236816406
3553,2,2,0.16236305236816406
3554,0,0,0.1633167266845703
3555,0,0,0.16164779663085938
3556,2,2,0.16307830810546875
3557,0,0,0.16117095947265625
3558,0,0,0.16021728515625
3559,0,0,0.1621246337890625
3560,0,0,0.15974044799804688
3561,0,0,0.1838207244873047
3562,0,0,0.1609325408935547
3563,2,2,0.16450881958007812
3564,0,0,0.16117095947265625
3565,0,0,0.16021728515625
3566,0,0,0.16164779663085938
3567,0,0,0.16117095947265625
3568,2,2,0.16069412231445312
3569,0,0,0.1595020294189453
3570,0,0,0.15735626220703125
3571,0,0,0.16260147094726562
3572,0,0,0.1595020294189453
3573,0,0,0.16236305236816406
3574,0,0,0.16164779663085938
3575,0,0,0.15854835510253906
3576,0,0,0.1571178436279297
3577,2,2,0.1628398895263672
3578,0,0,0.16307830810546875
3579,0,0,0.16117095947265625
3580,0,0,0.15854835510253906
3581,1,1,0.17905235290527344
3582,0,0,0.1609325408935547
3583,0,0,0.1647472381591797
3584,1,1,0.16188621520996094
3585,0,0,0.1621246337890625
3586,0,0,0.16260147094726562
3587,2,2,0.16307830810546875
3588,0,0,0.1614093780517578
3589,0,0,0.15997886657714844
3590,0,0,0.1614093780517578
3591,0,0,0.1583099365234375
3592,0,0,0.1583099365234375
3593,0,0,0.16260147094726562
3594,2,2,0.16260147094726562
3595,0,0,0.1614093780517578
3596,0,0,0.1590251922607422
3597,0,0,0.1595020294189453
3598,0,0,0.15997886657714844
3599,2,2,0.16307830810546875
3600,0,0,0.15974044799804688
3601,0,0,0.16164779663085938
3602,0,0,0.16260147094726562
3603,0,0,0.16307830810546875
3604,0,0,0.15878677368164062
3605,0,0,0.16021728515625
3606,0,0,0.16427040100097656
3607,0,0,0.16188621520996094
3608,0,0,0.16236305236816406
3609,0,0,0.1609325408935547
3610,0,0,0.16689300537109375
3611,3,3,0.1633167266845703
3612,0,0,0.1590251922607422
3613,2,2,0.1621246337890625
3614,2,2,0.16164779663085938
3615,0,0,0.16164779663085938
3616,0,0,0.16021728515625
3617,0,0,0.1609325408935547
3618,0,0,0.15974044799804688
3619,0,1,0.16069412231445312
3620,0,0,0.1590251922607422
3621,0,0,0.16021728515625
3622,0,0,0.2944469451904297
3623,0,0,0.16498565673828125
3624,0,0,0.24390220642089844
3625,0,0,0.16999244689941406
3626,0,0,0.16427040100097656
3627,0,0,0.16045570373535156
3628,0,0,0.1595020294189453
3629,1,1,0.16236305236816406
3630,0,0,0.16117095947265625
3631,0,0,0.15997886657714844
3632,0,0,0.15926361083984375
3633,0,0,0.1614093780517578
3634,0,0,0.1628398895263672
3635,2,2,0.1628398895263672
3636,0,0,0.1628398895263672
3637,2,2,0.1621246337890625
3638,0,0,0.1590251922607422
3639,0,0,0.1621246337890625
3640,0,0,0.16307830810546875
3641,0,0,0.1819133758544922
3642,0,0,0.16689300537109375
3643,0,0,0.16236305236816406
3644,0,0,0.16260147094726562
3645,0,0,0.16427040100097656
3646,0,0,0.15997886657714844
3647,0,0,0.16260147094726562
3648,0,1,0.15997886657714844
3649,0,4,0.16641616821289062
3650,0,0,0.16260147094726562
3651,0,0,0.16069412231445312
3652,0,0,0.16045570373535156
3653,2,2,0.16617774963378906
3654,0,0,0.16355514526367188
3655,0,2,0.16999244689941406
3656,0,0,0.16021728515625
3657,2,2,0.15997886657714844
3658,0,0,0.1652240753173828
3659,0,0,0.18668174743652344
3660,0,0,0.21338462829589844
3661,0,0,0.19121170043945312
3662,0,0,0.18286705017089844
3663,0,0,0.18167495727539062
3664,0,0,0.18858909606933594
3665,0,0,0.19049644470214844
3666,0,0,0.18548965454101562
3667,0,0,0.18215179443359375
3668,0,0,0.18548965454101562
3669,0,0,0.18835067749023438
3670,0,0,0.18596649169921875
3671,0,0,0.18143653869628906
3672,1,1,0.16999244689941406
3673,0,0,0.16260147094726562
3674,0,0,0.1595020294189453
3675,0,0,0.1633167266845703
3676,0,0,0.1628398895263672
3677,0,0,0.1621246337890625
3678,0,0,0.2067089080810547
3679,0,0,0.17404556274414062
3680,0,0,0.16117095947265625
3681,0,0,0.16355514526367188
3682,0,0,0.16546249389648438
3683,0,0,0.16236305236816406
3684,0,0,0.1609325408935547
3685,1,1,0.1659393310546875
3686,0,0,0.1647472381591797
3687,0,0,0.15997886657714844
3688,0,0,0.16117095947265625
3689,0,0,0.16045570373535156
3690,0,0,0.1633167266845703
3691,0,0,0.1659393310546875
3692,0,0,0.16117095947265625
3693,0,0,0.1709461212158203
3694,0,0,0.1785755157470703
3695,0,0,0.18095970153808594
3696,0,0,0.1811981201171875
3697,0,0,0.21457672119140625
3698,0,0,0.186920166015625
3699,0,0,0.17976760864257812
3700,3,3,0.324249267578125
3701,0,0,0.1709461212158203
3702,0,0,0.2548694610595703
3703,0,0,0.1685619354248047
3704,0,0,0.1647472381591797
3705,0,0,0.164031982421875
3706,0,0,0.1609325408935547
3707,0,0,0.16117095947265625
3708,0,0,0.1614093780517578
3709,0,0,0.16117095947265625
3710,0,0,0.1614093780517578
3711,0,0,0.1609325408935547
3712,0,0,0.16045570373535156
3713,0,0,0.1609325408935547
3714,0,0,0.16069412231445312
3715,0,0,0.19025802612304688
3716,0,0,0.1621246337890625
3717,0,0,0.15974044799804688
3718,2,2,0.16164779663085938
3719,0,0,0.16117095947265625
3720,0,0,0.15974044799804688
3721,0,0,0.16188621520996094
3722,0,0,0.16236305236816406
3723,0,0,0.1609325408935547
3724,0,0,0.16188621520996094
3725,0,0,0.16164779663085938
3726,0,0,0.16355514526367188
3727,0,0,0.1628398895263672
3728,0,0,0.1704692840576172
3729,0,0,0.16641616821289062
3730,0,0,0.15997886657714844
3731,0,0,0.1652240753173828
3732,0,0,0.16045570373535156
3733,0,0,0.1614093780517578
3734,0,0,0.15997886657714844
3735,0,0,0.18024444580078125
3736,0,0,0.16927719116210938
3737,0,0,0.16260147094726562
3738,0,0,0.15974044799804688
3739,0,0,0.15974044799804688
3740,0,0,0.16164779663085938
3741,0,0,0.16164779663085938
3742,0,0,0.16307830810546875
3743,0,0,0.16164779663085938
3744,0,0,0.1590251922607422
3745,0,0,0.16236305236816406
3746,0,0,0.16164779663085938
3747,0,0,0.1628398895263672
3748,0,0,0.1614093780517578
3749,0,0,0.16117095947265625
3750,0,0,0.16236305236816406
3751,0,0,0.16045570373535156
3752,0,0,0.1590251922607422
3753,0,0,0.16236305236816406
3754,2,2,0.1671314239501953
3755,0,0,0.19311904907226562
3756,0,0,0.16760826110839844
3757,0,0,0.16069412231445312
3758,0,0,0.1690387725830078
3759,0,0,0.16427040100097656
3760,2,2,0.16236305236816406
3761,0,0,0.16069412231445312
3762,0,0,0.16045570373535156
3763,0,0,0.16307830810546875
3764,0,0,0.1590251922607422
3765,0,0,0.16236305236816406
3766,0,0,0.15926361083984375
3767,0,0,0.16164779663085938
3768,0,0,0.1614093780517578
3769,0,0,0.1633167266845703
3770,0,0,0.1614093780517578
3771,0,0,0.1614093780517578
3772,0,0,0.15974044799804688
3773,0,0,0.1652240753173828
3774,0,0,0.1652240753173828
3775,0,0,0.18072128295898438
3776,1,1,0.1633167266845703
3777,0,0,0.15878677368164062
3778,0,0,0.16069412231445312
3779,0,0,0.16117095947265625
3780,0,0,0.16117095947265625
3781,0,0,0.1590251922607422
3782,0,0,0.28324127197265625
3783,0,0,0.16927719116210938
3784,0,0,0.24461746215820312
3785,0,0,0.1678466796875
3786,0,0,0.16546249389648438
3787,0,0,0.16307830810546875
3788,0,0,0.1590251922607422
3789,2,2,0.1633167266845703
3790,0,0,0.1614093780517578
3791,0,0,0.16355514526367188
3792,0,0,0.1614093780517578
3793,0,0,0.16045570373535156
3794,0,0,0.18358230590820312
3795,0,0,0.16498565673828125
3796,0,0,0.16021728515625
3797,0,0,0.16188621520996094
3798,0,0,0.16427040100097656
3799,0,0,0.16117095947265625
3800,0,0,0.16069412231445312
3801,0,0,0.16427040100097656
3802,0,0,0.16427040100097656
3803,0,0,0.1590251922607422
3804,0,0,0.1628398895263672
3805,0,0,0.16236305236816406
3806,0,0,0.15926361083984375
3807,0,0,0.15974044799804688
3808,0,0,0.16617774963378906
3809,1,1,0.15997886657714844
3810,0,0,0.16307830810546875
3811,2,2,0.16260147094726562
3812,0,0,0.1609325408935547
3813,0,0,0.16236305236816406
3814,0,0,0.1823902130126953
3815,0,0,0.20360946655273438
3816,0,0,0.17499923706054688
3817,0,0,0.209808349609375
3818,0,0,0.1888275146484375
3819,0,0,0.1671314239501953
3820,0,0,0.20503997802734375
3821,0,0,0.1614093780517578
3822,0,0,0.23102760314941406
3823,0,0,0.20837783813476562
3824,1,1,0.16880035400390625
3825,2,2,0.2079010009765625
3826,0,0,0.1895427703857422
3827,0,0,0.16689300537109375
3828,0,0,0.20575523376464844
3829,0,0,0.1659393310546875
3830,0,0,0.24843215942382812
3831,0,0,0.1766681671142578
3832,0,0,0.186920166015625
3833,0,0,0.20241737365722656
3834,0,0,0.22268295288085938
3835,0,0,0.19121170043945312
3836,0,0,0.20313262939453125
3837,0,0,0.16021728515625
3838,1,1,0.16164779663085938
3839,0,0,0.16045570373535156
3840,0,0,0.1609325408935547
3841,0,0,0.16450881958007812
3842,0,0,0.16021728515625
3843,0,0,0.1628398895263672
3844,0,0,0.16117095947265625
3845,0,0,0.15926361083984375
3846,0,0,0.17261505126953125
3847,0,0,0.1666545867919922
3848,0,0,0.1647472381591797
3849,0,0,0.18525123596191406
3850,0,0,0.16427040100097656
3851,0,0,0.16236305236816406
3852,0,0,0.15974044799804688
3853,0,0,0.1614093780517578
3854,0,0,0.16021728515625
3855,0,0,0.16307830810546875
3856,0,0,0.1609325408935547
3857,0,0,0.16045570373535156
3858,0,0,0.16355514526367188
3859,0,0,0.17404556274414062
3860,2,2,0.1628398895263672
3861,0,0,0.24127960205078125
3862,0,0,0.16808509826660156
3863,0,0,0.1678466796875
3864,0,0,0.16355514526367188
3865,3,0,0.16427040100097656
3866,0,0,0.16188621520996094
3867,0,0,0.16117095947265625
3868,0,0,0.16379356384277344
3869,0,0,0.16236305236816406
3870,0,0,0.1633167266845703
3871,0,0,0.15926361083984375
3872,0,0,0.1633167266845703
3873,0,0,0.1621246337890625
3874,0,0,0.16188621520996094
3875,0,0,0.1595020294189453
3876,0,0,0.16021728515625
3877,0,0,0.16021728515625
3878,0,0,0.16045570373535156
3879,0,0,0.15997886657714844
3880,0,0,0.16236305236816406
3881,0,0,0.16355514526367188
3882,2,2,0.16999244689941406
3883,0,0,0.1590251922607422
3884,0,0,0.1609325408935547
3885,0,0,0.16307830810546875
3886,0,0,0.16450881958007812
3887,0,0,0.16117095947265625
3888,0,0,0.17905235290527344
3889,0,0,0.16355514526367188
3890,0,0,0.16045570373535156
3891,0,0,0.1647472381591797
3892,0,0,0.16021728515625
3893,0,0,0.1621246337890625
3894,0,0,0.1595020294189453
3895,0,0,0.16045570373535156
3896,0,0,0.15926361083984375
3897,0,0,0.16188621520996094
3898,2,2,0.16045570373535156
3899,0,0,0.16021728515625
3900,2,2,0.1609325408935547
3901,0,0,0.15974044799804688
3902,0,0,0.16379356384277344
3903,0,0,0.16427040100097656
3904,0,0,0.15997886657714844
3905,2,2,0.16236305236816406
3906,0,0,0.16832351684570312
3907,2,2,0.16260147094726562
3908,0,0,0.1857280731201172
3909,0,0,0.16641616821289062
3910,0,0,0.15974044799804688
3911,0,0,0.15997886657714844
3912,0,0,0.1595020294189453
3913,0,0,0.15926361083984375
3914,0,0,0.16307830810546875
3915,0,0,0.1583099365234375
3916,0,0,0.15997886657714844
3917,0,0,0.15974044799804688
3918,0,0,0.16164779663085938
3919,0,0,0.16188621520996094
3920,0,0,0.15926361083984375
3921,0,0,0.15974044799804688
3922,0,0,0.16236305236816406
3923,0,0,0.15926361083984375
3924,0,0,0.16188621520996094
3925,0,0,0.1609325408935547
3926,2,2,0.15997886657714844
3927,0,0,0.1628398895263672
3928,0,0,0.17786026000976562
3929,0,0,0.16021728515625
3930,0,0,0.16450881958007812
3931,0,0,0.16164779663085938
3932,0,0,0.1633167266845703
3933,0,0,0.16069412231445312
3934,0,0,0.16450881958007812
3935,0,0,0.1609325408935547
3936,0,0,0.1614093780517578
3937,0,0,0.16260147094726562
3938,0,0,0.16045570373535156
3939,1,1,0.15974044799804688
3940,1,1,0.1609325408935547
3941,0,0,0.2703666687011719
3942,0,0,0.17023086547851562
3943,0,0,0.1647472381591797
3944,0,0,0.24557113647460938
3945,0,0,0.1652240753173828
3946,0,0,0.16260147094726562
3947,0,0,0.1857280731201172
3948,0,0,0.1633167266845703
3949,0,0,0.1666545867919922
3950,0,0,0.164031982421875
3951,0,0,0.1614093780517578
3952,0,1,0.16164779663085938
3953,0,0,0.16236305236816406
3954,0,0,0.16021728515625
3955,0,0,0.16260147094726562
3956,0,0,0.16260147094726562
3957,0,0,0.16069412231445312
3958,0,0,0.15926361083984375
3959,0,0,0.15974044799804688
3960,0,0,0.16260147094726562
3961,0,0,0.16188621520996094
3962,0,0,0.16808509826660156
3963,0,0,0.1609325408935547
3964,0,0,0.16069412231445312
3965,0,0,0.16307830810546875
3966,0,0,0.16045570373535156
3967,0,0,0.1780986785888672
3968,0,0,0.16498565673828125
3969,0,0,0.1621246337890625
3970,0,0,0.16236305236816406
3971,0,0,0.16188621520996094
3972,0,0,0.164031982421875
3973,0,0,0.1609325408935547
3974,0,0,0.16546249389648438
3975,0,0,0.1926422119140625
3976,0,0,0.18334388732910156
3977,0,0,0.16832351684570312
3978,0,0,0.16188621520996094
3979,0,0,0.16188621520996094
3980,0,0,0.16069412231445312
3981,0,0,0.16164779663085938
3982,0,0,0.16498565673828125
3983,0,0,0.16379356384277344
3984,0,0,0.1633167266845703
3985,0,0,0.16045570373535156
3986,0,0,0.16880035400390625
3987,1,0,0.1735687255859375
3988,1,1,0.16808509826660156
3989,0,0,0.16498565673828125
3990,0,0,0.16164779663085938
3991,0,0,0.1704692840576172
3992,0,0,0.16236305236816406
3993,0,0,0.16379356384277344
3994,0,1,0.15974044799804688
3995,0,0,0.16236305236816406
3996,2,2,0.1609325408935547
3997,2,2,0.16117095947265625
3998,0,0,0.16307830810546875
3999,0,1,0.16188621520996094
4000,0,0,0.15878677368164062
4001,0,0,0.16164779663085938
4002,0,0,0.1633167266845703
4003,0,0,0.16379356384277344
4004,0,0,0.1590251922607422
4005,0,0,0.15878677368164062
4006,0,0,0.18024444580078125
4007,0,0,0.16236305236816406
4008,0,0,0.16379356384277344
4009,0,0,0.15926361083984375
4010,2,2,0.16427040100097656
4011,0,0,0.15926361083984375
4012,0,0,0.16069412231445312
4013,0,0,0.1633167266845703
4014,0,0,0.16355514526367188
4015,0,0,0.16188621520996094
4016,0,0,0.16021728515625
4017,2,2,0.16236305236816406
4018,0,0,0.16069412231445312
4019,1,1,0.16164779663085938
4020,0,0,0.16307830810546875
4021,0,0,0.16260147094726562
4022,0,0,0.1633167266845703
4023,0,0,0.2841949462890625
4024,0,0,0.16617774963378906
4025,0,0,0.16570091247558594
4026,0,0,0.2739429473876953
4027,0,0,0.16808509826660156
4028,0,0,0.15926361083984375
4029,0,0,0.1633167266845703
4030,0,0,0.16427040100097656
4031,0,0,0.1652240753173828
4032,0,0,0.1609325408935547
4033,2,2,0.16045570373535156
4034,0,0,0.16045570373535156
4035,0,0,0.16117095947265625
4036,0,0,0.16427040100097656
4037,0,0,0.1609325408935547
4038,0,0,0.164031982421875
4039,0,0,0.1647472381591797
4040,0,0,0.16164779663085938
4041,0,0,0.16689300537109375
4042,2,2,0.16427040100097656
4043,0,0,0.16427040100097656
4044,0,0,0.16045570373535156
4045,0,0,0.31185150146484375
4046,0,0,0.19550323486328125
4047,2,2,0.18334388732910156
4048,0,0,0.17404556274414062
4049,0,0,0.18167495727539062
4050,0,0,0.18644332885742188
4051,0,0,0.18334388732910156
4052,0,0,0.17905235290527344
4053,0,0,0.18286705017089844
4054,0,0,0.1800060272216797
4055,0,0,0.17452239990234375
4056,2,2,0.1728534698486328
4057,0,0,0.17571449279785156
4058,0,0,0.1800060272216797
4059,0,0,0.16689300537109375
4060,0,0,0.16808509826660156
4061,0,0,0.17070770263671875
4062,0,0,0.20241737365722656
4063,0,0,0.18334388732910156
4064,0,0,0.17547607421875
4065,0,0,0.1747608184814453
4066,1,1,0.18715858459472656
4067,0,0,0.19431114196777344
4068,0,0,0.19598007202148438
4069,0,0,0.20456314086914062
4070,0,0,0.19311904907226562
4071,2,2,0.1842975616455078
4072,0,0,0.18024444580078125
4073,0,0,0.1819133758544922
4074,0,0,0.1780986785888672
4075,0,0,0.17023086547851562
4076,0,0,0.16880035400390625
4077,0,0,0.17523765563964844
4078,0,0,0.17189979553222656
4079,0,0,0.21386146545410156
4080,0,0,0.1780986785888672
4081,0,0,0.17309188842773438
4082,0,0,0.16689300537109375
4083,0,0,0.17070770263671875
4084,1,1,0.16760826110839844
4085,0,0,0.1659393310546875
4086,0,0,0.17118453979492188
4087,0,0,0.17714500427246094
4088,0,0,0.18453598022460938
4089,0,0,0.18334388732910156
4090,0,0,0.17380714416503906
4091,0,0,0.1747608184814453
4092,0,0,0.1728534698486328
4093,0,0,0.1678466796875
4094,0,0,0.1690387725830078
4095,0,0,0.16808509826660156
4096,0,0,0.1690387725830078
4097,0,0,0.1666545867919922
4098,0,0,0.19121170043945312
4099,0,0,0.18286705017089844
4100,0,0,0.2758502960205078
4101,0,0,0.1862049102783203
4102,0,0,0.186920166015625
4103,0,0,0.18477439880371094
4104,0,0,0.1800060272216797
4105,0,0,0.1766681671142578
4106,0,0,0.1804828643798828
4107,3,3,0.18167495727539062
4108,0,0,0.1983642578125
4109,0,0,0.18334388732910156
4110,0,0,0.18072128295898438
4111,0,0,0.18739700317382812
4112,0,0,0.1819133758544922
4113,2,2,0.20885467529296875
4114,0,0,0.18715858459472656
4115,0,0,0.17023086547851562
4116,0,0,0.1747608184814453
4117,0,0,0.18167495727539062
4118,0,0,0.17833709716796875
4119,2,2,0.18024444580078125
4120,0,0,0.1735687255859375
4121,0,0,0.18477439880371094
4122,0,0,0.17976760864257812
4123,0,0,0.17714500427246094
4124,0,0,0.17690658569335938
4125,0,0,0.17595291137695312
4126,0,0,0.18358230590820312
4127,0,0,0.1761913299560547
4128,0,0,0.17523765563964844
4129,0,0,0.1780986785888672
4130,1,1,0.17452239990234375
4131,2,2,0.22077560424804688
4132,2,2,0.18715858459472656
4133,2,2,0.17547607421875
4134,0,1,0.17189979553222656
4135,0,0,0.17881393432617188
4136,1,0,0.20170211791992188
4137,0,0,0.20194053649902344
4138,0,0,0.202178955078125
4139,0,0,0.20360946655273438
4140,2,2,0.21600723266601562
4141,0,0,0.21839141845703125
4142,0,0,0.20742416381835938
4143,0,0,0.20122528076171875
4144,0,0,0.19478797912597656
4145,0,0,0.18739700317382812
4146,0,0,0.22983551025390625
4147,0,0,0.21982192993164062
4148,0,0,0.22077560424804688
4149,0,0,0.20766258239746094
4150,0,0,0.21505355834960938
4151,0,0,0.21004676818847656
4152,0,0,0.202178955078125
4153,0,0,0.20885467529296875
4154,0,0,0.20766258239746094
4155,0,0,0.18453598022460938
4156,0,0,0.1709461212158203
4157,0,0,0.1704692840576172
4158,0,0,0.1690387725830078
4159,0,0,0.18739700317382812
4160,0,0,0.16951560974121094
4161,0,0,0.17142295837402344
4162,0,0,0.22029876708984375
4163,0,0,0.19788742065429688
4164,2,2,0.3600120544433594
4165,0,0,0.22125244140625
4166,0,0,0.3292560577392578
4167,0,0,0.21958351135253906
4168,0,0,0.19741058349609375
4169,0,0,0.20933151245117188
4170,0,0,0.19288063049316406
4171,0,0,0.17547607421875
4172,0,0,0.18835067749023438
4173,2,2,0.18215179443359375
4174,0,0,0.19288063049316406
4175,0,0,0.1914501190185547
4176,0,0,0.24557113647460938
4177,0,0,0.17690658569335938
4178,0,0,0.17189979553222656
4179,0,0,0.17714500427246094
4180,0,0,0.18644332885742188
4181,0,0,0.19788742065429688
4182,0,0,0.19693374633789062
4183,0,0,0.18072128295898438
4184,0,0,0.17881393432617188
4185,0,0,0.1842975616455078
4186,0,0,0.18310546875
4187,0,0,0.18024444580078125
4188,0,0,0.17905235290527344
4189,0,0,0.17762184143066406
4190,2,2,0.17452239990234375
4191,0,0,0.1811981201171875
4192,0,0,0.17499923706054688
4193,2,2,0.232696533203125
4194,0,0,0.17881393432617188
4195,0,0,0.1685619354248047
4196,0,0,0.16760826110839844
4197,0,0,0.16307830810546875
4198,0,0,0.16450881958007812
4199,0,0,0.16832351684570312
4200,0,0,0.1804828643798828
4201,0,0,0.18405914306640625
4202,0,0,0.17595291137695312
4203,0,0,0.1690387725830078
4204,0,0,0.16760826110839844
4205,0,0,0.16736984252929688
4206,0,0,0.16880035400390625
4207,0,0,0.16832351684570312
4208,0,0,0.17213821411132812
4209,0,0,0.16498565673828125
4210,0,0,0.16546249389648438
4211,0,0,0.20313262939453125
4212,0,0,0.18215179443359375
4213,0,0,0.17261505126953125
4214,0,0,0.16736984252929688
4215,0,0,0.17023086547851562
4216,0,0,0.16760826110839844
4217,0,0,0.17523765563964844
4218,0,0,0.171661376953125
4219,0,0,0.17762184143066406
4220,0,0,0.17023086547851562
4221,0,0,0.17023086547851562
4222,0,0,0.1785755157470703
4223,0,0,0.17070770263671875
4224,0,0,0.17118453979492188
4225,0,0,0.17380714416503906
4226,0,0,0.1723766326904297
4227,1,1,0.1735687255859375
4228,0,0,0.1800060272216797
4229,0,0,0.21147727966308594
4230,0,0,0.1971721649169922
4231,0,0,0.19812583923339844
4232,0,0,0.20265579223632812
4233,0,1,0.20694732666015625
4234,0,0,0.40340423583984375
4235,0,0,0.2295970916748047
4236,0,0,0.23245811462402344
4237,0,0,0.20623207092285156
4238,0,0,0.20360946655273438
4239,0,0,0.18525123596191406
4240,1,1,0.1850128173828125
4241,0,0,0.1800060272216797
4242,0,0,0.18095970153808594
4243,0,0,0.22172927856445312
4244,0,0,0.20003318786621094
