,label,pred,exec_time_ms
0,0,1,0.5714893341064453
1,0,0,0.1659393310546875
2,0,0,0.16117095947265625
3,0,0,0.17499923706054688
4,0,0,0.17762184143066406
5,0,0,0.17333030700683594
6,0,0,0.1666545867919922
7,1,1,0.15926361083984375
8,0,0,0.1609325408935547
9,0,0,0.15997886657714844
10,0,0,0.16021728515625
11,0,0,0.16069412231445312
12,0,0,0.16045570373535156
13,0,0,0.16069412231445312
14,0,0,0.16021728515625
15,0,0,0.15974044799804688
16,0,0,0.15974044799804688
17,0,0,0.16021728515625
18,0,0,0.209808349609375
19,0,0,0.16689300537109375
20,0,0,0.1659393310546875
21,0,0,0.16117095947265625
22,0,0,0.1609325408935547
23,0,0,0.1595020294189453
24,0,0,0.16164779663085938
25,0,0,0.15997886657714844
26,0,0,0.16188621520996094
27,0,0,0.15997886657714844
28,0,0,0.16045570373535156
29,0,0,0.15926361083984375
30,0,0,0.16045570373535156
31,0,0,0.15878677368164062
32,0,0,0.16021728515625
33,0,0,0.15974044799804688
34,0,0,0.15997886657714844
35,0,0,0.16021728515625
36,0,0,0.1621246337890625
37,0,0,0.16117095947265625
38,0,0,0.15997886657714844
39,0,0,0.19884109497070312
40,0,0,0.16498565673828125
41,0,0,0.1614093780517578
42,0,0,0.1609325408935547
43,0,0,0.1595020294189453
44,0,0,0.15997886657714844
45,0,0,0.16045570373535156
46,0,0,0.15974044799804688
47,0,0,0.1595020294189453
48,0,0,0.15997886657714844
49,0,0,0.16117095947265625
50,0,0,0.1595020294189453
51,0,0,0.16379356384277344
52,0,0,0.17881393432617188
53,0,0,0.18453598022460938
54,0,0,0.18286705017089844
55,0,0,0.18167495727539062
56,0,0,0.17976760864257812
57,0,0,0.18167495727539062
58,0,0,0.23031234741210938
59,0,0,0.17976760864257812
60,0,0,0.16546249389648438
61,0,0,0.16260147094726562
62,0,0,0.1621246337890625
63,0,0,0.1633167266845703
64,0,0,0.16736984252929688
65,0,0,0.16045570373535156
66,0,0,0.16069412231445312
67,0,0,0.164031982421875
68,0,0,0.1628398895263672
69,0,0,0.16069412231445312
70,0,0,0.15974044799804688
71,0,0,0.15997886657714844
72,0,0,0.16045570373535156
73,0,0,0.16307830810546875
74,0,0,0.15974044799804688
75,0,0,0.16021728515625
76,0,0,0.16069412231445312
77,0,0,0.1614093780517578
78,0,0,0.1926422119140625
79,0,0,0.16427040100097656
80,0,0,0.1609325408935547
81,0,0,0.16117095947265625
82,0,0,0.16546249389648438
83,0,0,0.17118453979492188
84,0,0,0.1728534698486328
85,0,0,0.164031982421875
86,0,0,0.16069412231445312
87,0,0,0.16117095947265625
88,0,0,0.1609325408935547
89,0,0,0.16069412231445312
90,0,0,0.16117095947265625
91,0,0,0.16117095947265625
92,0,0,0.15997886657714844
93,0,0,0.15926361083984375
94,0,0,0.1595020294189453
95,0,0,0.16021728515625
96,0,0,0.1609325408935547
97,0,0,0.16021728515625
98,0,0,0.19121170043945312
99,0,0,0.16355514526367188
100,0,0,0.1628398895263672
101,0,0,0.16021728515625
102,0,0,0.1621246337890625
103,0,0,0.1614093780517578
104,0,0,0.1609325408935547
105,0,0,0.16021728515625
106,0,0,0.16164779663085938
107,0,0,0.16021728515625
108,0,0,0.16021728515625
109,0,0,0.16117095947265625
110,0,0,0.16021728515625
111,0,0,0.16021728515625
112,0,0,0.16045570373535156
113,0,0,0.1590251922607422
114,0,0,0.16045570373535156
115,0,0,0.15854835510253906
116,0,0,0.16307830810546875
117,0,0,0.16045570373535156
118,0,0,0.1609325408935547
119,0,0,0.1647472381591797
120,0,0,0.16164779663085938
121,0,0,0.1678466796875
122,0,0,0.16188621520996094
123,0,0,0.16069412231445312
124,0,0,0.1609325408935547
125,0,0,0.16069412231445312
126,0,0,0.16736984252929688
127,0,0,0.17261505126953125
128,0,0,0.16117095947265625
129,0,0,0.16045570373535156
130,0,0,0.15926361083984375
131,0,0,0.1621246337890625
132,0,0,0.16307830810546875
133,0,0,0.15974044799804688
134,0,0,0.1595020294189453
135,0,0,0.15926361083984375
136,0,0,0.15974044799804688
137,0,0,0.19097328186035156
138,0,0,0.1850128173828125
139,0,0,0.19288063049316406
140,0,0,0.18072128295898438
141,0,0,0.18358230590820312
142,0,0,0.17690658569335938
143,0,0,0.1857280731201172
144,0,0,0.1876354217529297
145,0,0,0.1819133758544922
146,0,0,0.18453598022460938
147,0,0,0.1780986785888672
148,0,0,0.18548965454101562
149,0,0,0.18930435180664062
150,0,0,0.1728534698486328
151,0,0,0.164031982421875
152,0,0,0.16045570373535156
153,0,0,0.1685619354248047
154,0,0,0.1609325408935547
155,0,0,0.16045570373535156
156,0,0,0.19311904907226562
157,0,0,0.16927719116210938
158,0,0,0.16188621520996094
159,0,0,0.16045570373535156
160,0,0,0.16164779663085938
161,0,0,0.15997886657714844
162,0,0,0.16069412231445312
163,0,0,0.1671314239501953
164,0,0,0.16760826110839844
165,0,0,0.16069412231445312
166,0,0,0.15974044799804688
167,0,0,0.16021728515625
168,0,0,0.15997886657714844
169,0,0,0.15878677368164062
170,0,0,0.15974044799804688
171,0,0,0.16164779663085938
172,0,0,0.18548965454101562
173,0,0,0.16546249389648438
174,0,0,0.16260147094726562
175,0,0,0.1609325408935547
176,0,0,0.16069412231445312
177,0,0,0.1621246337890625
178,0,0,0.15997886657714844
179,0,0,0.15974044799804688
180,0,0,0.1621246337890625
181,0,0,0.16164779663085938
182,0,0,0.16069412231445312
183,0,0,0.1595020294189453
184,0,0,0.1595020294189453
185,0,0,0.15974044799804688
186,0,0,0.15974044799804688
187,0,0,0.1590251922607422
188,0,0,0.15926361083984375
189,0,0,0.15926361083984375
190,0,0,0.16045570373535156
191,0,0,0.15997886657714844
192,0,0,0.1609325408935547
193,0,0,0.1595020294189453
194,0,0,0.15807151794433594
195,0,0,0.1609325408935547
196,0,0,0.1609325408935547
197,0,0,0.19478797912597656
198,0,0,0.17380714416503906
199,0,0,0.16570091247558594
200,0,0,0.16117095947265625
201,0,0,0.16021728515625
202,0,0,0.15878677368164062
203,0,0,0.16260147094726562
204,0,0,0.1590251922607422
205,0,0,0.15878677368164062
206,0,0,0.16021728515625
207,0,0,0.15974044799804688
208,0,0,0.15997886657714844
209,0,0,0.15878677368164062
210,0,0,0.15926361083984375
211,0,0,0.15878677368164062
212,0,0,0.16260147094726562
213,0,0,0.15997886657714844
214,0,0,0.16045570373535156
215,0,0,0.16021728515625
216,0,0,0.15854835510253906
217,0,0,0.16021728515625
218,0,0,0.18453598022460938
219,0,0,0.16021728515625
220,0,0,0.16021728515625
221,0,0,0.1595020294189453
222,0,0,0.16069412231445312
223,0,0,0.1609325408935547
224,0,0,0.1590251922607422
225,0,0,0.16021728515625
226,0,0,0.1595020294189453
227,0,0,0.16117095947265625
228,0,0,0.16260147094726562
229,0,0,0.16021728515625
230,1,0,0.15997886657714844
231,0,0,0.1647472381591797
232,0,0,0.16069412231445312
233,0,0,0.15974044799804688
234,0,0,0.16450881958007812
235,0,0,0.15807151794433594
236,0,0,0.1614093780517578
237,0,0,0.15974044799804688
238,0,0,0.1819133758544922
239,0,0,0.16117095947265625
240,0,0,0.1595020294189453
241,0,0,0.15997886657714844
242,0,0,0.15878677368164062
243,0,0,0.15997886657714844
244,0,0,0.16307830810546875
245,0,0,0.16021728515625
246,0,0,0.16641616821289062
247,0,0,0.16069412231445312
248,0,0,0.15974044799804688
249,0,0,0.16117095947265625
250,0,0,0.16045570373535156
251,0,0,0.1595020294189453
252,0,0,0.1609325408935547
253,0,0,0.15997886657714844
254,0,0,0.1595020294189453
255,0,0,0.15854835510253906
256,0,0,0.15974044799804688
257,0,0,0.1614093780517578
258,1,0,0.1590251922607422
259,0,0,0.17952919006347656
260,0,0,0.16069412231445312
261,0,0,0.16069412231445312
262,0,0,0.15997886657714844
263,0,0,0.15997886657714844
264,0,0,0.15974044799804688
265,0,0,0.16164779663085938
266,0,0,0.16021728515625
267,0,0,0.16021728515625
268,0,0,0.15926361083984375
269,0,0,0.1595020294189453
270,0,0,0.16021728515625
271,0,0,0.15997886657714844
272,0,0,0.15926361083984375
273,0,0,0.1590251922607422
274,0,0,0.15878677368164062
275,0,0,0.15974044799804688
276,0,0,0.16117095947265625
277,0,0,0.15997886657714844
278,0,0,0.15854835510253906
279,0,0,0.15974044799804688
280,0,0,0.16736984252929688
281,0,0,0.15926361083984375
282,0,0,0.16021728515625
283,0,0,0.16021728515625
284,0,0,0.16069412231445312
285,0,0,0.16045570373535156
286,0,0,0.16069412231445312
287,0,0,0.15926361083984375
288,0,0,0.16069412231445312
289,0,0,0.15926361083984375
290,0,0,0.15926361083984375
291,0,0,0.15926361083984375
292,0,0,0.1633167266845703
293,0,0,0.16164779663085938
294,0,0,0.1595020294189453
295,0,0,0.16069412231445312
296,0,0,0.16021728515625
297,0,0,0.16021728515625
298,0,0,0.16045570373535156
299,0,0,0.16021728515625
300,0,0,0.18072128295898438
301,0,0,0.16069412231445312
302,0,0,0.16021728515625
303,0,0,0.16021728515625
304,0,0,0.16045570373535156
305,0,0,0.16021728515625
306,0,0,0.15997886657714844
307,0,0,0.15997886657714844
308,0,0,0.16260147094726562
309,0,0,0.16021728515625
310,0,0,0.16021728515625
311,0,0,0.16069412231445312
312,0,0,0.15997886657714844
313,0,0,0.1609325408935547
314,0,0,0.15997886657714844
315,0,0,0.15997886657714844
316,0,0,0.16164779663085938
317,0,0,0.1628398895263672
318,0,0,0.1595020294189453
319,0,0,0.15997886657714844
320,0,0,0.1633167266845703
321,0,0,0.1766681671142578
322,0,0,0.16021728515625
323,0,0,0.16021728515625
324,0,0,0.1628398895263672
325,0,0,0.1595020294189453
326,0,0,0.1621246337890625
327,0,0,0.16045570373535156
328,0,0,0.16069412231445312
329,0,0,0.1621246337890625
330,0,0,0.16069412231445312
331,0,0,0.15926361083984375
332,0,0,0.15997886657714844
333,0,1,0.15878677368164062
334,0,0,0.15997886657714844
335,0,0,0.1595020294189453
336,0,0,0.1595020294189453
337,0,0,0.16021728515625
338,0,0,0.16021728515625
339,0,0,0.1595020294189453
340,0,0,0.1628398895263672
341,0,0,0.1800060272216797
342,1,1,0.16164779663085938
343,0,0,0.16069412231445312
344,0,0,0.16045570373535156
345,0,0,0.16045570373535156
346,0,0,0.1609325408935547
347,0,0,0.1595020294189453
348,0,0,0.16069412231445312
349,0,0,0.1583099365234375
350,0,0,0.1595020294189453
351,0,0,0.15997886657714844
352,0,0,0.16021728515625
353,0,0,0.16117095947265625
354,0,0,0.16164779663085938
355,0,0,0.16069412231445312
356,0,0,0.16236305236816406
357,0,0,0.15974044799804688
358,0,0,0.16021728515625
359,0,0,0.16069412231445312
360,0,0,0.15878677368164062
361,0,0,0.15878677368164062
362,0,0,0.1780986785888672
363,0,0,0.16045570373535156
364,0,0,0.16164779663085938
365,0,0,0.16021728515625
366,0,0,0.15926361083984375
367,0,0,0.16021728515625
368,0,0,0.15878677368164062
369,0,0,0.15997886657714844
370,0,0,0.15997886657714844
371,0,0,0.15926361083984375
372,0,0,0.1647472381591797
373,0,0,0.1595020294189453
374,0,0,0.16021728515625
375,0,0,0.1595020294189453
376,0,0,0.16021728515625
377,0,0,0.1595020294189453
378,0,0,0.16021728515625
379,0,0,0.15878677368164062
380,0,0,0.15926361083984375
381,0,0,0.16069412231445312
382,0,0,0.1614093780517578
383,0,0,0.16188621520996094
384,0,0,0.16069412231445312
385,0,1,0.16021728515625
386,0,0,0.16045570373535156
387,0,0,0.15997886657714844
388,0,0,0.16236305236816406
389,0,0,0.16117095947265625
390,0,0,0.16021728515625
391,0,0,0.16045570373535156
392,0,0,0.15974044799804688
393,0,0,0.15974044799804688
394,0,0,0.15974044799804688
395,0,0,0.15974044799804688
396,0,0,0.15997886657714844
397,0,0,0.16069412231445312
398,0,0,0.16045570373535156
399,0,0,0.15974044799804688
400,0,0,0.1590251922607422
401,0,0,0.1595020294189453
402,0,0,0.1621246337890625
403,0,0,0.18072128295898438
404,0,0,0.16164779663085938
405,0,0,0.16045570373535156
406,0,0,0.16379356384277344
407,0,0,0.15974044799804688
408,0,0,0.15997886657714844
409,0,0,0.16045570373535156
410,0,0,0.1595020294189453
411,0,0,0.15974044799804688
412,0,0,0.15997886657714844
413,0,0,0.16236305236816406
414,0,0,0.16021728515625
415,0,0,0.16045570373535156
416,0,0,0.16045570373535156
417,0,0,0.16021728515625
418,0,0,0.16188621520996094
419,0,0,0.1590251922607422
420,0,0,0.16260147094726562
421,0,0,0.16045570373535156
422,0,0,0.15878677368164062
423,0,0,0.1595020294189453
424,0,0,0.18072128295898438
425,0,0,0.16379356384277344
426,0,0,0.16188621520996094
427,0,0,0.16236305236816406
428,0,0,0.1609325408935547
429,0,0,0.1614093780517578
430,0,1,0.15997886657714844
431,0,0,0.16188621520996094
432,0,0,0.15878677368164062
433,0,0,0.16164779663085938
434,0,0,0.1590251922607422
435,0,0,0.1614093780517578
436,0,0,0.16164779663085938
437,0,0,0.16117095947265625
438,0,0,0.16069412231445312
439,0,0,0.15997886657714844
440,0,0,0.16117095947265625
441,1,1,0.1621246337890625
442,0,0,0.15974044799804688
443,0,0,0.15997886657714844
444,0,0,0.17905235290527344
445,0,0,0.16379356384277344
446,0,0,0.15997886657714844
447,0,0,0.1609325408935547
448,0,0,0.15997886657714844
449,0,0,0.1633167266845703
450,0,0,0.16069412231445312
451,0,0,0.1595020294189453
452,0,0,0.16164779663085938
453,0,0,0.16021728515625
454,0,0,0.15926361083984375
455,0,0,0.16021728515625
456,0,0,0.16021728515625
457,0,0,0.15997886657714844
458,0,0,0.15997886657714844
459,0,0,0.16045570373535156
460,0,0,0.1590251922607422
461,0,0,0.15926361083984375
462,0,0,0.15878677368164062
463,0,0,0.1678466796875
464,0,0,0.16117095947265625
465,0,0,0.17905235290527344
466,0,0,0.16069412231445312
467,0,0,0.16069412231445312
468,0,0,0.1621246337890625
469,0,0,0.16117095947265625
470,0,0,0.16069412231445312
471,0,0,0.16021728515625
472,0,0,0.15974044799804688
473,0,0,0.1621246337890625
474,0,0,0.16045570373535156
475,0,0,0.16117095947265625
476,0,0,0.15974044799804688
477,0,0,0.1595020294189453
478,0,0,0.15926361083984375
479,0,0,0.1595020294189453
480,0,0,0.1609325408935547
481,0,0,0.16069412231445312
482,0,0,0.1583099365234375
483,0,0,0.1609325408935547
484,0,0,0.16260147094726562
485,0,0,0.16069412231445312
486,0,0,0.16355514526367188
487,0,0,0.16069412231445312
488,0,0,0.16641616821289062
489,0,0,0.16021728515625
490,0,0,0.16045570373535156
491,0,0,0.16117095947265625
492,0,0,0.15974044799804688
493,0,0,0.16021728515625
494,0,0,0.1614093780517578
495,0,0,0.16117095947265625
496,0,0,0.16117095947265625
497,0,0,0.15974044799804688
498,0,0,0.16021728515625
499,0,0,0.1609325408935547
500,0,0,0.16188621520996094
501,0,0,0.16045570373535156
502,0,0,0.16069412231445312
503,0,0,0.15926361083984375
504,0,0,0.15997886657714844
505,0,0,0.16021728515625
506,0,0,0.17881393432617188
507,0,0,0.1590251922607422
508,0,0,0.15974044799804688
509,0,0,0.1595020294189453
510,0,0,0.15926361083984375
511,0,0,0.15997886657714844
512,0,0,0.1614093780517578
513,0,0,0.15974044799804688
514,0,0,0.16021728515625
515,0,0,0.16045570373535156
516,0,0,0.16570091247558594
517,0,0,0.15997886657714844
518,0,0,0.15997886657714844
519,0,0,0.16021728515625
520,0,0,0.15878677368164062
521,0,0,0.1590251922607422
522,0,0,0.15997886657714844
523,0,0,0.15974044799804688
524,0,0,0.16069412231445312
525,0,0,0.15926361083984375
526,0,0,0.15926361083984375
527,0,0,0.18596649169921875
528,0,0,0.1690387725830078
529,0,0,0.1614093780517578
530,0,0,0.15878677368164062
531,0,0,0.15974044799804688
532,0,0,0.1628398895263672
533,0,0,0.16045570373535156
534,0,0,0.15974044799804688
535,0,0,0.16021728515625
536,0,0,0.15926361083984375
537,0,0,0.1609325408935547
538,0,0,0.16069412231445312
539,0,0,0.15997886657714844
540,0,0,0.1595020294189453
541,0,0,0.16236305236816406
542,0,0,0.1595020294189453
543,0,0,0.16045570373535156
544,0,0,0.15926361083984375
545,0,0,0.16045570373535156
546,0,0,0.1609325408935547
547,0,0,0.18477439880371094
548,0,0,0.16379356384277344
549,0,0,0.16188621520996094
550,0,0,0.16045570373535156
551,0,0,0.1609325408935547
552,0,0,0.16045570373535156
553,0,0,0.1609325408935547
554,0,0,0.15997886657714844
555,0,0,0.16069412231445312
556,0,0,0.16021728515625
557,0,0,0.15997886657714844
558,0,0,0.1595020294189453
559,0,0,0.15997886657714844
560,0,0,0.15974044799804688
561,0,0,0.1595020294189453
562,0,0,0.15997886657714844
563,0,0,0.16164779663085938
564,0,0,0.1621246337890625
565,0,0,0.16164779663085938
566,0,0,0.15926361083984375
567,0,0,0.1735687255859375
568,0,0,0.1895427703857422
569,0,0,0.18405914306640625
570,0,0,0.18215179443359375
571,0,0,0.1773834228515625
572,0,0,0.18215179443359375
573,0,0,0.18978118896484375
574,0,0,0.171661376953125
575,0,0,0.164031982421875
576,0,0,0.1678466796875
577,0,0,0.1690387725830078
578,0,0,0.16260147094726562
579,0,0,0.16188621520996094
580,0,0,0.1609325408935547
581,0,0,0.16188621520996094
582,0,0,0.1609325408935547
583,0,0,0.1609325408935547
584,0,0,0.16164779663085938
585,0,0,0.16117095947265625
586,0,0,0.1609325408935547
587,0,0,0.19550323486328125
588,0,0,0.1628398895263672
589,0,0,0.1609325408935547
590,0,0,0.15997886657714844
591,0,0,0.1590251922607422
592,0,0,0.16021728515625
593,0,0,0.1595020294189453
594,0,0,0.16069412231445312
595,0,0,0.16069412231445312
596,0,0,0.1621246337890625
597,0,0,0.1609325408935547
598,0,0,0.1595020294189453
599,1,1,0.16021728515625
600,0,0,0.16045570373535156
601,0,0,0.15997886657714844
602,0,0,0.1595020294189453
603,0,0,0.16069412231445312
604,0,0,0.1609325408935547
605,0,0,0.16069412231445312
606,0,0,0.15997886657714844
607,0,0,0.18286705017089844
608,0,0,0.16117095947265625
609,0,0,0.15974044799804688
610,0,0,0.16117095947265625
611,0,0,0.16045570373535156
612,0,0,0.16355514526367188
613,0,0,0.16069412231445312
614,0,0,0.16069412231445312
615,0,0,0.15997886657714844
616,0,0,0.1614093780517578
617,0,0,0.16045570373535156
618,0,0,0.15997886657714844
619,0,0,0.1595020294189453
620,0,0,0.16045570373535156
621,0,0,0.1595020294189453
622,0,0,0.15997886657714844
623,0,0,0.16021728515625
624,0,0,0.16164779663085938
625,0,0,0.16045570373535156
626,0,0,0.16045570373535156
627,0,0,0.16045570373535156
628,0,0,0.18262863159179688
629,0,0,0.16117095947265625
630,0,0,0.15997886657714844
631,0,0,0.16117095947265625
632,0,0,0.15997886657714844
633,0,0,0.15997886657714844
634,0,0,0.16021728515625
635,0,0,0.1595020294189453
636,0,0,0.1590251922607422
637,0,0,0.16045570373535156
638,0,0,0.16188621520996094
639,0,0,0.16045570373535156
640,0,0,0.1633167266845703
641,0,0,0.15974044799804688
642,0,0,0.16021728515625
643,0,0,0.16188621520996094
644,0,0,0.1614093780517578
645,0,0,0.16021728515625
646,0,0,0.1614093780517578
647,0,0,0.15974044799804688
648,0,0,0.17952919006347656
649,0,0,0.16236305236816406
650,0,0,0.16069412231445312
651,0,0,0.16117095947265625
652,0,0,0.16164779663085938
653,0,0,0.16307830810546875
654,0,0,0.17571449279785156
655,0,0,0.18548965454101562
656,0,0,0.1773834228515625
657,0,0,0.1850128173828125
658,0,0,0.1785755157470703
659,0,0,0.18596649169921875
660,0,0,0.186920166015625
661,0,0,0.186920166015625
662,0,0,0.18930435180664062
663,0,0,0.18405914306640625
664,0,0,0.19168853759765625
665,0,0,0.18310546875
666,0,0,0.2148151397705078
667,0,0,0.1881122589111328
668,0,0,0.1838207244873047
669,0,0,0.1685619354248047
670,0,0,0.16021728515625
671,0,0,0.1628398895263672
672,0,0,0.16355514526367188
673,0,0,0.1659393310546875
674,0,0,0.1628398895263672
675,0,0,0.15997886657714844
676,0,0,0.16164779663085938
677,0,0,0.1595020294189453
678,0,0,0.15926361083984375
679,0,0,0.15997886657714844
680,0,0,0.16069412231445312
681,0,0,0.1595020294189453
682,0,0,0.1609325408935547
683,0,0,0.1595020294189453
684,0,0,0.16045570373535156
685,0,0,0.1590251922607422
686,0,0,0.19121170043945312
687,0,0,0.16117095947265625
688,0,0,0.16164779663085938
689,0,0,0.16164779663085938
690,0,0,0.15997886657714844
691,0,0,0.16117095947265625
692,0,0,0.164031982421875
693,0,0,0.1609325408935547
694,0,0,0.16260147094726562
695,0,0,0.16546249389648438
696,0,0,0.16355514526367188
697,0,0,0.16045570373535156
698,0,0,0.16069412231445312
699,0,0,0.16045570373535156
700,0,0,0.15997886657714844
701,0,0,0.16307830810546875
702,0,0,0.16021728515625
703,0,0,0.15974044799804688
704,0,0,0.16069412231445312
705,0,0,0.16021728515625
706,0,0,0.1838207244873047
707,0,0,0.16188621520996094
708,0,0,0.1628398895263672
709,0,0,0.16021728515625
710,0,0,0.16069412231445312
711,0,0,0.15974044799804688
712,0,0,0.15997886657714844
713,0,0,0.1652240753173828
714,0,0,0.16045570373535156
715,0,0,0.1652240753173828
716,0,0,0.15974044799804688
717,0,0,0.15974044799804688
718,0,0,0.15974044799804688
719,0,0,0.16021728515625
720,0,0,0.16355514526367188
721,0,0,0.16021728515625
722,0,0,0.16164779663085938
723,0,0,0.16045570373535156
724,0,0,0.16379356384277344
725,0,0,0.1583099365234375
726,0,0,0.16188621520996094
727,0,0,0.18167495727539062
728,0,0,0.1628398895263672
729,0,0,0.15974044799804688
730,0,0,0.16069412231445312
731,0,0,0.16021728515625
732,0,0,0.15997886657714844
733,0,0,0.1595020294189453
734,0,0,0.15974044799804688
735,0,0,0.16069412231445312
736,0,0,0.1609325408935547
737,0,0,0.1614093780517578
738,0,0,0.1614093780517578
739,0,0,0.17023086547851562
740,0,0,0.16832351684570312
741,0,0,0.16188621520996094
742,0,0,0.16021728515625
743,0,0,0.1633167266845703
744,0,0,0.15997886657714844
745,0,0,0.1595020294189453
746,0,0,0.15997886657714844
747,0,0,0.18095970153808594
748,0,0,0.16117095947265625
749,0,0,0.1595020294189453
750,0,0,0.15997886657714844
751,0,0,0.16045570373535156
752,0,0,0.1590251922607422
753,0,0,0.15974044799804688
754,0,0,0.15974044799804688
755,0,0,0.16117095947265625
756,0,0,0.1621246337890625
757,0,0,0.15974044799804688
758,0,0,0.1590251922607422
759,0,0,0.15997886657714844
760,0,0,0.16164779663085938
761,0,0,0.16117095947265625
762,0,0,0.16045570373535156
763,0,0,0.1595020294189453
764,0,0,0.16164779663085938
765,0,0,0.16069412231445312
766,0,0,0.15974044799804688
767,0,0,0.1583099365234375
768,0,0,0.18358230590820312
769,0,0,0.1628398895263672
770,0,0,0.15997886657714844
771,0,0,0.15974044799804688
772,0,0,0.1652240753173828
773,0,0,0.15974044799804688
774,0,0,0.16117095947265625
775,0,0,0.1614093780517578
776,0,0,0.1595020294189453
777,0,0,0.15997886657714844
778,0,0,0.16188621520996094
779,0,0,0.16021728515625
780,0,0,0.15997886657714844
781,0,0,0.15974044799804688
782,0,0,0.15878677368164062
783,0,0,0.16117095947265625
784,0,0,0.15997886657714844
785,0,0,0.1590251922607422
786,0,0,0.1595020294189453
787,0,0,0.16045570373535156
788,0,0,0.18215179443359375
789,0,0,0.1628398895263672
790,0,0,0.16021728515625
791,0,0,0.16021728515625
792,0,0,0.16021728515625
793,0,0,0.16021728515625
794,0,0,0.16021728515625
795,0,0,0.16069412231445312
796,0,0,0.15974044799804688
797,0,0,0.16188621520996094
798,0,0,0.16021728515625
799,0,0,0.15974044799804688
800,0,0,0.16069412231445312
801,0,0,0.1621246337890625
802,0,0,0.16021728515625
803,0,0,0.15974044799804688
804,0,0,0.16236305236816406
805,0,0,0.1628398895263672
806,0,0,0.16117095947265625
807,0,0,0.1590251922607422
808,0,0,0.16021728515625
809,0,0,0.17976760864257812
810,0,0,0.1609325408935547
811,0,0,0.16021728515625
812,0,0,0.16236305236816406
813,0,0,0.1609325408935547
814,0,0,0.16021728515625
815,0,0,0.16045570373535156
816,0,0,0.15974044799804688
817,0,0,0.16069412231445312
818,0,0,0.1595020294189453
819,0,0,0.15997886657714844
820,0,0,0.16307830810546875
821,0,0,0.16045570373535156
822,0,0,0.1659393310546875
823,0,0,0.16117095947265625
824,0,0,0.15997886657714844
825,0,0,0.16355514526367188
826,0,0,0.1590251922607422
827,0,0,0.15974044799804688
828,0,0,0.16117095947265625
829,0,0,0.1780986785888672
830,0,0,0.1704692840576172
831,0,0,0.1621246337890625
832,0,0,0.1609325408935547
833,0,0,0.1609325408935547
834,0,0,0.16021728515625
835,0,0,0.16021728515625
836,0,0,0.16188621520996094
837,0,0,0.1595020294189453
838,0,0,0.15926361083984375
839,0,0,0.16021728515625
840,0,0,0.16045570373535156
841,0,0,0.16021728515625
842,0,0,0.15997886657714844
843,0,0,0.16117095947265625
844,0,0,0.1609325408935547
845,0,0,0.16069412231445312
846,0,0,0.15878677368164062
847,0,0,0.16117095947265625
848,0,0,0.16045570373535156
849,0,0,0.16021728515625
850,0,0,0.18715858459472656
851,0,0,0.16355514526367188
852,0,0,0.16188621520996094
853,0,0,0.16069412231445312
854,0,0,0.16021728515625
855,0,0,0.16069412231445312
856,0,0,0.1614093780517578
857,0,0,0.15926361083984375
858,0,0,0.15997886657714844
859,0,0,0.1609325408935547
860,0,0,0.15926361083984375
861,0,0,0.16069412231445312
862,0,0,0.16117095947265625
863,0,0,0.15997886657714844
864,0,0,0.16117095947265625
865,0,0,0.16069412231445312
866,0,0,0.15997886657714844
867,0,0,0.16045570373535156
868,0,0,0.16498565673828125
869,0,0,0.16045570373535156
870,0,0,0.1926422119140625
871,0,0,0.1690387725830078
872,0,0,0.16427040100097656
873,0,0,0.1621246337890625
874,0,0,0.1595020294189453
875,0,0,0.16188621520996094
876,0,0,0.16117095947265625
877,0,0,0.16045570373535156
878,0,0,0.15974044799804688
879,0,0,0.1614093780517578
880,0,0,0.16021728515625
881,0,0,0.16069412231445312
882,0,0,0.15926361083984375
883,0,0,0.1595020294189453
884,0,0,0.16164779663085938
885,0,0,0.1590251922607422
886,0,0,0.16117095947265625
887,0,0,0.16045570373535156
888,0,0,0.16117095947265625
889,0,0,0.16021728515625
890,0,0,0.15974044799804688
891,0,0,0.1838207244873047
892,0,0,0.1614093780517578
893,0,0,0.16236305236816406
894,0,0,0.15997886657714844
895,0,0,0.1697540283203125
896,0,0,0.16069412231445312
897,0,0,0.15926361083984375
898,0,0,0.16236305236816406
899,0,0,0.1614093780517578
900,0,0,0.1633167266845703
901,0,0,0.16164779663085938
902,0,0,0.16045570373535156
903,0,0,0.1595020294189453
904,0,0,0.16355514526367188
905,0,0,0.1583099365234375
906,0,0,0.16188621520996094
907,0,0,0.16117095947265625
908,0,0,0.15997886657714844
909,0,0,0.16021728515625
910,0,0,0.16379356384277344
911,0,0,0.18525123596191406
912,0,0,0.16164779663085938
913,0,0,0.1614093780517578
914,0,0,0.16164779663085938
915,0,0,0.1595020294189453
916,0,0,0.16260147094726562
917,0,0,0.16069412231445312
918,0,0,0.16045570373535156
919,0,0,0.15974044799804688
920,0,0,0.16021728515625
921,0,0,0.16069412231445312
922,0,0,0.16045570373535156
923,0,0,0.1590251922607422
924,0,0,0.16021728515625
925,0,0,0.16188621520996094
926,0,0,0.16117095947265625
927,0,0,0.15974044799804688
928,0,0,0.1590251922607422
929,0,0,0.16069412231445312
930,0,0,0.1595020294189453
931,0,0,0.15997886657714844
932,0,0,0.18072128295898438
933,0,0,0.16164779663085938
934,0,0,0.15974044799804688
935,0,0,0.15997886657714844
936,0,0,0.1609325408935547
937,0,0,0.15974044799804688
938,0,0,0.15997886657714844
939,0,0,0.1590251922607422
940,0,0,0.15854835510253906
941,0,0,0.16045570373535156
942,0,0,0.16021728515625
943,0,0,0.16021728515625
944,0,0,0.16069412231445312
945,0,0,0.16117095947265625
946,0,0,0.15974044799804688
947,0,0,0.1590251922607422
948,0,0,0.1628398895263672
949,0,0,0.15997886657714844
950,0,0,0.1595020294189453
951,0,0,0.16188621520996094
952,0,0,0.1773834228515625
953,0,0,0.16164779663085938
954,0,1,0.1590251922607422
955,0,0,0.16164779663085938
956,0,0,0.15854835510253906
957,0,0,0.15878677368164062
958,0,0,0.16045570373535156
959,0,0,0.1595020294189453
960,0,0,0.1614093780517578
961,0,0,0.16069412231445312
962,0,0,0.16069412231445312
963,0,0,0.16021728515625
964,0,0,0.16236305236816406
965,0,0,0.16045570373535156
966,0,0,0.16021728515625
967,0,0,0.1614093780517578
968,0,0,0.1595020294189453
969,0,0,0.1595020294189453
970,0,0,0.1614093780517578
971,0,0,0.1614093780517578
972,0,0,0.1590251922607422
973,0,0,0.1823902130126953
974,0,0,0.1647472381591797
975,0,0,0.16164779663085938
976,0,0,0.15974044799804688
977,0,0,0.16260147094726562
978,0,0,0.16188621520996094
979,0,0,0.16355514526367188
980,0,0,0.1633167266845703
981,0,0,0.1621246337890625
982,0,0,0.15878677368164062
983,0,0,0.16164779663085938
984,0,0,0.1590251922607422
985,0,0,0.16164779663085938
986,0,0,0.16355514526367188
987,1,1,0.1633167266845703
988,0,0,0.15878677368164062
989,0,0,0.16021728515625
990,0,0,0.1595020294189453
991,0,0,0.16236305236816406
992,0,0,0.1595020294189453
993,0,0,0.18167495727539062
994,0,0,0.16164779663085938
995,0,0,0.16117095947265625
996,0,0,0.16570091247558594
997,0,0,0.1590251922607422
998,0,0,0.1621246337890625
999,0,0,0.16164779663085938
1000,0,0,0.16021728515625
1001,0,0,0.1609325408935547
1002,0,0,0.16164779663085938
1003,0,0,0.15878677368164062
1004,0,0,0.1614093780517578
1005,0,0,0.16045570373535156
1006,0,0,0.15997886657714844
1007,0,0,0.16188621520996094
1008,0,0,0.16021728515625
1009,0,0,0.16045570373535156
1010,0,0,0.15926361083984375
1011,0,0,0.15997886657714844
1012,0,0,0.16188621520996094
1013,0,0,0.16188621520996094
1014,0,0,0.18215179443359375
1015,0,0,0.16045570373535156
1016,0,0,0.15854835510253906
1017,0,0,0.1609325408935547
1018,0,0,0.16188621520996094
1019,0,0,0.15997886657714844
1020,0,0,0.16117095947265625
1021,0,0,0.16021728515625
1022,0,0,0.16045570373535156
1023,0,0,0.15926361083984375
1024,0,0,0.15974044799804688
1025,0,0,0.16117095947265625
1026,0,0,0.16164779663085938
1027,0,0,0.16069412231445312
1028,0,0,0.16355514526367188
1029,0,0,0.16188621520996094
1030,0,0,0.16045570373535156
1031,0,0,0.15997886657714844
1032,0,0,0.15997886657714844
1033,0,0,0.15997886657714844
1034,0,0,0.15997886657714844
1035,0,0,0.1621246337890625
1036,0,0,0.16069412231445312
1037,0,0,0.15974044799804688
1038,0,0,0.16069412231445312
1039,0,0,0.1609325408935547
1040,0,0,0.16069412231445312
1041,0,0,0.1609325408935547
1042,0,0,0.16069412231445312
1043,0,0,0.16117095947265625
1044,0,0,0.16236305236816406
1045,0,0,0.16045570373535156
1046,0,0,0.16188621520996094
1047,0,0,0.15997886657714844
1048,0,0,0.16546249389648438
1049,0,0,0.16236305236816406
1050,0,0,0.16021728515625
1051,0,0,0.16021728515625
1052,0,0,0.15974044799804688
1053,0,0,0.1595020294189453
1054,0,0,0.16069412231445312
1055,0,0,0.18334388732910156
1056,0,0,0.17333030700683594
1057,0,0,0.16355514526367188
1058,0,0,0.16188621520996094
1059,0,0,0.16045570373535156
1060,0,0,0.1652240753173828
1061,0,0,0.1595020294189453
1062,0,0,0.1590251922607422
1063,0,0,0.15926361083984375
1064,0,0,0.15997886657714844
1065,0,0,0.16689300537109375
1066,0,0,0.16164779663085938
1067,0,0,0.1609325408935547
1068,0,0,0.16021728515625
1069,0,0,0.1609325408935547
1070,0,0,0.16236305236816406
1071,0,0,0.1609325408935547
1072,0,0,0.16021728515625
1073,0,0,0.15997886657714844
1074,0,0,0.15974044799804688
1075,0,0,0.16117095947265625
1076,0,0,0.1659393310546875
1077,0,0,0.16164779663085938
1078,1,0,0.15997886657714844
1079,0,0,0.15997886657714844
1080,0,0,0.15926361083984375
1081,0,0,0.1697540283203125
1082,0,0,0.1842975616455078
1083,0,0,0.18525123596191406
1084,0,0,0.1857280731201172
1085,1,0,0.18405914306640625
1086,0,0,0.18715858459472656
1087,0,0,0.1823902130126953
1088,0,0,0.1747608184814453
1089,0,0,0.1697540283203125
1090,0,0,0.16188621520996094
1091,0,0,0.1609325408935547
1092,0,0,0.16355514526367188
1093,0,0,0.1614093780517578
1094,0,0,0.1933574676513672
1095,0,0,0.16736984252929688
1096,0,0,0.16045570373535156
1097,0,0,0.15974044799804688
1098,0,0,0.15997886657714844
1099,0,0,0.1609325408935547
1100,0,0,0.1678466796875
1101,0,0,0.16617774963378906
1102,0,0,0.15974044799804688
1103,1,0,0.1609325408935547
1104,0,0,0.16164779663085938
1105,0,0,0.15974044799804688
1106,0,0,0.16045570373535156
1107,0,0,0.16045570373535156
1108,0,0,0.16236305236816406
1109,0,0,0.1609325408935547
1110,0,0,0.15997886657714844
1111,0,0,0.16069412231445312
1112,0,0,0.15997886657714844
1113,0,0,0.15997886657714844
1114,0,0,0.1614093780517578
1115,0,0,0.1842975616455078
1116,0,0,0.16307830810546875
1117,0,0,0.1621246337890625
1118,0,0,0.16021728515625
1119,0,0,0.16164779663085938
1120,1,0,0.16045570373535156
1121,0,0,0.16355514526367188
1122,0,0,0.15997886657714844
1123,0,0,0.16021728515625
1124,0,0,0.1609325408935547
1125,1,1,0.1614093780517578
1126,0,0,0.16307830810546875
1127,0,0,0.15974044799804688
1128,0,0,0.16021728515625
1129,0,0,0.16021728515625
1130,0,0,0.15878677368164062
1131,0,0,0.16760826110839844
1132,0,0,0.164031982421875
1133,0,0,0.16117095947265625
1134,0,0,0.16117095947265625
1135,0,0,0.18525123596191406
1136,0,0,0.1652240753173828
1137,0,0,0.16689300537109375
1138,0,0,0.17118453979492188
1139,0,0,0.16498565673828125
1140,0,0,0.16427040100097656
1141,0,0,0.1614093780517578
1142,0,0,0.16021728515625
1143,0,0,0.1678466796875
1144,0,0,0.1614093780517578
1145,0,0,0.16021728515625
1146,0,0,0.1609325408935547
1147,0,0,0.16164779663085938
1148,0,0,0.16164779663085938
1149,0,0,0.15926361083984375
1150,0,0,0.16045570373535156
1151,0,0,0.16808509826660156
1152,0,0,0.16164779663085938
1153,0,0,0.16117095947265625
1154,0,0,0.16069412231445312
1155,0,0,0.18215179443359375
1156,0,0,0.16689300537109375
1157,0,0,0.16260147094726562
1158,0,0,0.16188621520996094
1159,0,0,0.16021728515625
1160,0,0,0.1595020294189453
1161,0,0,0.16021728515625
1162,0,0,0.1595020294189453
1163,0,0,0.15997886657714844
1164,0,0,0.15997886657714844
1165,0,0,0.16570091247558594
1166,0,0,0.15974044799804688
1167,0,0,0.16069412231445312
1168,0,0,0.18095970153808594
1169,0,0,0.1862049102783203
1170,0,0,0.1819133758544922
1171,0,0,0.18262863159179688
1172,0,0,0.18548965454101562
1173,0,0,0.1811981201171875
1174,0,0,0.19216537475585938
1175,0,0,0.20933151245117188
1176,0,0,0.19311904907226562
1177,0,0,0.1819133758544922
1178,0,0,0.18596649169921875
1179,0,0,0.179290771484375
1180,0,0,0.18024444580078125
1181,0,0,0.1697540283203125
1182,0,0,0.16069412231445312
1183,0,0,0.16164779663085938
1184,0,0,0.1785755157470703
1185,0,0,0.17881393432617188
1186,0,0,0.1709461212158203
1187,0,0,0.16641616821289062
1188,0,0,0.1647472381591797
1189,0,0,0.16188621520996094
1190,0,0,0.16069412231445312
1191,0,0,0.1609325408935547
1192,0,0,0.16117095947265625
1193,0,0,0.20384788513183594
1194,0,0,0.16498565673828125
1195,0,0,0.1609325408935547
1196,0,0,0.16260147094726562
1197,0,0,0.16069412231445312
1198,0,0,0.16045570373535156
1199,0,0,0.1609325408935547
1200,0,0,0.16069412231445312
1201,0,0,0.1621246337890625
1202,0,0,0.16021728515625
1203,0,0,0.16021728515625
1204,0,0,0.1628398895263672
1205,0,0,0.16045570373535156
1206,0,0,0.1621246337890625
1207,0,0,0.15926361083984375
1208,0,0,0.16069412231445312
1209,0,0,0.15997886657714844
1210,0,0,0.15974044799804688
1211,0,0,0.16069412231445312
1212,0,0,0.15997886657714844
1213,0,0,0.18286705017089844
1214,0,0,0.1609325408935547
1215,0,0,0.16069412231445312
1216,0,0,0.1609325408935547
1217,0,0,0.15997886657714844
1218,0,0,0.16069412231445312
1219,1,0,0.16069412231445312
1220,0,0,0.1628398895263672
1221,0,0,0.1609325408935547
1222,0,0,0.1621246337890625
1223,0,0,0.15926361083984375
1224,0,0,0.15926361083984375
1225,0,0,0.16069412231445312
1226,0,0,0.1614093780517578
1227,0,0,0.16260147094726562
1228,0,0,0.16021728515625
1229,0,0,0.15997886657714844
1230,0,0,0.17070770263671875
1231,0,0,0.1609325408935547
1232,0,0,0.16188621520996094
1233,0,0,0.16498565673828125
1234,0,0,0.1609325408935547
1235,1,1,0.1614093780517578
1236,0,0,0.16570091247558594
1237,0,0,0.1609325408935547
1238,0,0,0.16117095947265625
1239,0,0,0.1595020294189453
1240,0,0,0.16069412231445312
1241,0,0,0.15926361083984375
1242,0,0,0.1590251922607422
1243,0,0,0.15926361083984375
1244,0,0,0.16021728515625
1245,0,0,0.16021728515625
1246,0,0,0.1590251922607422
1247,0,0,0.1678466796875
1248,0,0,0.1595020294189453
1249,0,0,0.1595020294189453
1250,0,0,0.16260147094726562
1251,0,0,0.15926361083984375
1252,0,0,0.16355514526367188
1253,0,0,0.16045570373535156
1254,0,0,0.1823902130126953
1255,0,0,0.2334117889404297
1256,0,0,0.16021728515625
1257,0,0,0.16069412231445312
1258,0,0,0.1621246337890625
1259,0,0,0.1621246337890625
1260,0,0,0.15997886657714844
1261,0,0,0.15878677368164062
1262,0,0,0.16069412231445312
1263,0,0,0.1590251922607422
1264,0,0,0.15974044799804688
1265,0,0,0.16021728515625
1266,0,0,0.1583099365234375
1267,0,0,0.16379356384277344
1268,0,0,0.16236305236816406
1269,0,0,0.16164779663085938
1270,0,0,0.1609325408935547
1271,0,0,0.16164779663085938
1272,0,0,0.16045570373535156
1273,0,0,0.16021728515625
1274,0,0,0.18215179443359375
1275,0,0,0.16260147094726562
1276,0,0,0.1609325408935547
1277,0,0,0.16188621520996094
1278,0,0,0.1614093780517578
1279,0,0,0.16164779663085938
1280,0,0,0.16021728515625
1281,0,0,0.16045570373535156
1282,0,0,0.15974044799804688
1283,0,0,0.1621246337890625
1284,0,0,0.1628398895263672
1285,0,0,0.16808509826660156
1286,0,0,0.16045570373535156
1287,0,0,0.15926361083984375
1288,0,0,0.16164779663085938
1289,0,0,0.16307830810546875
1290,0,0,0.16045570373535156
1291,0,0,0.16045570373535156
1292,0,0,0.16045570373535156
1293,0,0,0.15997886657714844
1294,0,0,0.16045570373535156
1295,0,0,0.18835067749023438
1296,0,0,0.1633167266845703
1297,0,0,0.15974044799804688
1298,0,0,0.15997886657714844
1299,0,0,0.18262863159179688
1300,0,0,0.16427040100097656
1301,0,0,0.15974044799804688
1302,0,0,0.15974044799804688
1303,0,0,0.16760826110839844
1304,0,0,0.1628398895263672
1305,0,0,0.1609325408935547
1306,0,0,0.16069412231445312
1307,0,0,0.16117095947265625
1308,0,0,0.15974044799804688
1309,0,0,0.15926361083984375
1310,0,0,0.16069412231445312
1311,0,0,0.1609325408935547
1312,0,0,0.16355514526367188
1313,0,0,0.16260147094726562
1314,0,0,0.15974044799804688
1315,0,0,0.1838207244873047
1316,0,0,0.16570091247558594
1317,0,0,0.1609325408935547
1318,0,0,0.16069412231445312
1319,0,0,0.16045570373535156
1320,0,0,0.15997886657714844
1321,0,0,0.1614093780517578
1322,0,0,0.16021728515625
1323,0,0,0.16117095947265625
1324,1,1,0.1621246337890625
1325,0,0,0.16045570373535156
1326,0,0,0.1595020294189453
1327,0,0,0.15997886657714844
1328,0,0,0.16045570373535156
1329,0,0,0.16021728515625
1330,0,0,0.15926361083984375
1331,0,0,0.1652240753173828
1332,0,0,0.16188621520996094
1333,0,0,0.15997886657714844
1334,0,0,0.16117095947265625
1335,0,0,0.16069412231445312
1336,0,0,0.164031982421875
1337,0,0,0.1609325408935547
1338,0,0,0.16045570373535156
1339,0,0,0.1609325408935547
1340,0,0,0.15997886657714844
1341,0,0,0.1609325408935547
1342,0,0,0.15974044799804688
1343,0,0,0.1595020294189453
1344,0,0,0.16021728515625
1345,0,0,0.16045570373535156
1346,0,0,0.1614093780517578
1347,0,0,0.16021728515625
1348,0,0,0.16188621520996094
1349,0,0,0.1609325408935547
1350,0,0,0.15974044799804688
1351,0,0,0.15974044799804688
1352,0,0,0.15974044799804688
1353,0,0,0.16021728515625
1354,0,0,0.16045570373535156
1355,0,0,0.1590251922607422
1356,0,0,0.17881393432617188
1357,0,0,0.16021728515625
1358,0,0,0.15974044799804688
1359,0,0,0.15974044799804688
1360,0,0,0.15997886657714844
1361,0,0,0.1595020294189453
1362,0,0,0.1590251922607422
1363,0,0,0.1590251922607422
1364,0,0,0.1628398895263672
1365,0,0,0.16045570373535156
1366,0,0,0.1595020294189453
1367,0,0,0.15974044799804688
1368,0,0,0.15974044799804688
1369,0,0,0.15997886657714844
1370,0,0,0.1595020294189453
1371,0,0,0.15926361083984375
1372,0,0,0.15926361083984375
1373,0,0,0.16188621520996094
1374,0,0,0.15997886657714844
1375,0,0,0.1595020294189453
1376,0,0,0.1595020294189453
1377,0,0,0.1780986785888672
1378,0,0,0.16045570373535156
1379,0,0,0.1609325408935547
1380,0,0,0.16117095947265625
1381,0,0,0.15997886657714844
1382,0,0,0.1609325408935547
1383,0,0,0.16069412231445312
1384,0,0,0.1595020294189453
1385,0,0,0.15997886657714844
1386,0,0,0.16188621520996094
1387,0,0,0.16069412231445312
1388,0,0,0.15974044799804688
1389,0,0,0.16021728515625
1390,0,0,0.15974044799804688
1391,0,0,0.16021728515625
1392,0,0,0.16021728515625
1393,0,0,0.16117095947265625
1394,1,1,0.16021728515625
1395,0,0,0.16069412231445312
1396,0,0,0.1659393310546875
1397,0,0,0.1609325408935547
1398,0,0,0.1728534698486328
1399,0,0,0.16689300537109375
1400,0,0,0.16021728515625
1401,0,0,0.1609325408935547
1402,0,0,0.15926361083984375
1403,0,0,0.15878677368164062
1404,0,0,0.1595020294189453
1405,0,0,0.1590251922607422
1406,0,0,0.1583099365234375
1407,0,0,0.15997886657714844
1408,0,0,0.16021728515625
1409,0,0,0.1595020294189453
1410,0,0,0.15878677368164062
1411,0,0,0.16021728515625
1412,0,0,0.16379356384277344
1413,0,0,0.15997886657714844
1414,0,0,0.15854835510253906
1415,0,0,0.16045570373535156
1416,0,0,0.15997886657714844
1417,0,0,0.16069412231445312
1418,0,0,0.18596649169921875
1419,0,0,0.16546249389648438
1420,0,0,0.16069412231445312
1421,0,0,0.1614093780517578
1422,0,0,0.1614093780517578
1423,0,0,0.15926361083984375
1424,0,0,0.16117095947265625
1425,0,0,0.16045570373535156
1426,0,0,0.15997886657714844
1427,0,0,0.1595020294189453
1428,0,0,0.1628398895263672
1429,0,0,0.1811981201171875
1430,0,0,0.1773834228515625
1431,0,0,0.17380714416503906
1432,0,0,0.1742839813232422
1433,0,0,0.17118453979492188
1434,0,0,0.16832351684570312
1435,0,0,0.17833709716796875
1436,0,0,0.17642974853515625
1437,0,0,0.16927719116210938
1438,0,0,0.16379356384277344
1439,0,0,0.14090538024902344
1440,0,0,0.15044212341308594
1441,0,0,0.1552104949951172
1442,0,0,0.1609325408935547
1443,0,0,0.1704692840576172
1444,0,0,0.1685619354248047
1445,0,0,0.1621246337890625
1446,0,0,0.16021728515625
1447,0,0,0.16069412231445312
1448,0,0,0.15997886657714844
1449,0,0,0.16021728515625
1450,0,0,0.15974044799804688
1451,0,0,0.16021728515625
1452,0,0,0.1595020294189453
1453,0,0,0.16045570373535156
1454,0,0,0.15997886657714844
1455,0,0,0.1590251922607422
1456,0,0,0.1609325408935547
1457,0,0,0.1595020294189453
1458,0,0,0.16736984252929688
1459,0,0,0.16045570373535156
1460,0,0,0.16307830810546875
1461,0,0,0.15997886657714844
1462,0,0,0.1609325408935547
1463,0,0,0.1595020294189453
1464,0,0,0.16021728515625
1465,0,0,0.16021728515625
1466,0,0,0.1595020294189453
1467,0,0,0.15974044799804688
1468,0,0,0.16069412231445312
1469,0,0,0.15997886657714844
1470,0,0,0.15997886657714844
1471,0,0,0.1728534698486328
1472,0,0,0.15974044799804688
1473,0,0,0.16045570373535156
1474,0,0,0.1595020294189453
1475,0,0,0.15854835510253906
1476,0,0,0.16355514526367188
1477,0,0,0.16617774963378906
1478,0,0,0.225067138671875
1479,1,1,0.16355514526367188
1480,0,0,0.16117095947265625
1481,0,0,0.15997886657714844
1482,1,1,0.16188621520996094
1483,0,0,0.15974044799804688
1484,0,0,0.16045570373535156
1485,0,0,0.1590251922607422
1486,0,0,0.16760826110839844
1487,0,0,0.1633167266845703
1488,0,0,0.1614093780517578
1489,0,0,0.15974044799804688
1490,0,0,0.1595020294189453
1491,0,0,0.16021728515625
1492,0,0,0.16355514526367188
1493,0,0,0.1609325408935547
1494,0,0,0.15974044799804688
1495,0,0,0.15974044799804688
1496,0,0,0.15926361083984375
1497,0,0,0.15926361083984375
1498,0,0,0.18715858459472656
1499,0,0,0.16188621520996094
1500,0,0,0.16045570373535156
1501,0,0,0.16689300537109375
1502,0,0,0.15854835510253906
1503,0,0,0.15974044799804688
1504,0,0,0.16307830810546875
1505,0,0,0.1595020294189453
1506,0,0,0.1590251922607422
1507,0,0,0.15974044799804688
1508,0,0,0.16045570373535156
1509,0,0,0.15926361083984375
1510,0,0,0.16045570373535156
1511,0,0,0.15974044799804688
1512,0,0,0.16069412231445312
1513,0,0,0.1609325408935547
1514,0,0,0.1590251922607422
1515,0,0,0.15997886657714844
1516,0,0,0.16021728515625
1517,0,0,0.16069412231445312
1518,0,0,0.15974044799804688
1519,0,0,0.1647472381591797
1520,1,1,0.16117095947265625
1521,0,0,0.15926361083984375
1522,0,0,0.1590251922607422
1523,0,0,0.15926361083984375
1524,0,0,0.1633167266845703
1525,0,0,0.16045570373535156
1526,0,0,0.16069412231445312
1527,0,0,0.1590251922607422
1528,1,1,0.16021728515625
1529,0,0,0.16021728515625
1530,0,0,0.15926361083984375
1531,0,0,0.16021728515625
1532,0,0,0.15878677368164062
1533,0,0,0.16021728515625
1534,0,0,0.1595020294189453
1535,0,0,0.16045570373535156
1536,0,0,0.16164779663085938
1537,0,0,0.16045570373535156
1538,0,0,0.16045570373535156
1539,0,0,0.1785755157470703
1540,0,0,0.17189979553222656
1541,0,0,0.16760826110839844
1542,0,0,0.1621246337890625
1543,0,0,0.16236305236816406
1544,0,0,0.1609325408935547
1545,0,0,0.16069412231445312
1546,0,0,0.16045570373535156
1547,0,0,0.16021728515625
1548,0,0,0.16045570373535156
1549,0,0,0.16021728515625
1550,1,1,0.16045570373535156
1551,0,0,0.16117095947265625
1552,0,0,0.16069412231445312
1553,0,0,0.15997886657714844
1554,0,0,0.1614093780517578
1555,0,0,0.15926361083984375
1556,0,0,0.1621246337890625
1557,1,0,0.1590251922607422
1558,0,0,0.1614093780517578
1559,0,0,0.16236305236816406
1560,0,0,0.1857280731201172
1561,0,0,0.16045570373535156
1562,0,0,0.1609325408935547
1563,0,0,0.1609325408935547
1564,0,0,0.16164779663085938
1565,0,0,0.16021728515625
1566,0,0,0.16069412231445312
1567,0,0,0.16021728515625
1568,0,0,0.15997886657714844
1569,0,0,0.15974044799804688
1570,0,0,0.15974044799804688
1571,0,0,0.15974044799804688
1572,0,0,0.16307830810546875
1573,0,0,0.1595020294189453
1574,0,0,0.15997886657714844
1575,0,0,0.16069412231445312
1576,0,0,0.16045570373535156
1577,0,0,0.16021728515625
1578,0,0,0.16045570373535156
1579,0,0,0.16021728515625
1580,0,0,0.17905235290527344
1581,0,0,0.17142295837402344
1582,0,0,0.16808509826660156
1583,0,0,0.16164779663085938
1584,0,0,0.15926361083984375
1585,0,0,0.16164779663085938
1586,0,0,0.16617774963378906
1587,0,0,0.16164779663085938
1588,0,0,0.1633167266845703
1589,0,0,0.1628398895263672
1590,0,0,0.1583099365234375
1591,1,1,0.16021728515625
1592,0,0,0.17023086547851562
1593,0,0,0.18858909606933594
1594,0,0,0.1838207244873047
1595,0,0,0.1819133758544922
1596,0,0,0.1780986785888672
1597,0,0,0.1850128173828125
1598,0,0,0.18143653869628906
1599,0,0,0.31566619873046875
1600,0,0,0.1552104949951172
1601,0,0,0.14257431030273438
1602,0,0,0.1533031463623047
1603,1,1,0.15592575073242188
1604,0,0,0.16260147094726562
1605,0,0,0.16164779663085938
1606,0,0,0.15878677368164062
1607,0,0,0.16069412231445312
1608,0,0,0.16117095947265625
1609,0,0,0.16188621520996094
1610,0,0,0.1609325408935547
1611,0,0,0.16307830810546875
1612,0,0,0.16117095947265625
1613,0,0,0.1614093780517578
1614,0,0,0.16188621520996094
1615,0,0,0.16164779663085938
1616,0,0,0.15997886657714844
1617,0,0,0.16117095947265625
1618,0,0,0.1614093780517578
1619,0,0,0.19097328186035156
1620,0,0,0.16450881958007812
1621,0,0,0.1621246337890625
1622,0,0,0.16188621520996094
1623,0,0,0.1595020294189453
1624,0,0,0.1609325408935547
1625,0,0,0.15974044799804688
1626,0,0,0.1614093780517578
1627,0,0,0.1590251922607422
1628,0,0,0.15997886657714844
1629,0,0,0.16045570373535156
1630,0,0,0.15974044799804688
1631,0,0,0.1595020294189453
1632,0,0,0.16117095947265625
1633,0,0,0.16069412231445312
1634,0,0,0.16021728515625
1635,0,0,0.1595020294189453
1636,0,0,0.16689300537109375
1637,0,0,0.16021728515625
1638,0,0,0.15974044799804688
1639,0,0,0.1685619354248047
1640,0,0,0.17642974853515625
1641,0,0,0.1633167266845703
1642,0,0,0.1628398895263672
1643,0,0,0.16045570373535156
1644,0,0,0.1609325408935547
1645,0,0,0.15974044799804688
1646,0,0,0.16069412231445312
1647,0,0,0.1595020294189453
1648,0,0,0.15974044799804688
1649,0,0,0.15974044799804688
1650,0,0,0.15974044799804688
1651,0,0,0.1595020294189453
1652,0,0,0.16355514526367188
1653,0,0,0.16021728515625
1654,0,0,0.1595020294189453
1655,0,0,0.15926361083984375
1656,0,0,0.16069412231445312
1657,0,0,0.1609325408935547
1658,0,0,0.16021728515625
1659,0,0,0.15997886657714844
1660,0,0,0.18143653869628906
1661,0,0,0.1609325408935547
1662,0,0,0.16069412231445312
1663,0,0,0.1595020294189453
1664,0,0,0.15974044799804688
1665,0,0,0.15854835510253906
1666,0,0,0.1590251922607422
1667,0,0,0.15854835510253906
1668,0,0,0.16045570373535156
1669,0,0,0.16045570373535156
1670,0,0,0.1652240753173828
1671,0,0,0.16021728515625
1672,0,0,0.16021728515625
1673,0,0,0.16379356384277344
1674,0,0,0.15807151794433594
1675,0,0,0.16045570373535156
1676,0,0,0.15997886657714844
1677,0,0,0.16021728515625
1678,0,0,0.1595020294189453
1679,0,0,0.16069412231445312
1680,0,0,0.18668174743652344
1681,0,0,0.19168853759765625
1682,0,0,0.1819133758544922
1683,0,0,0.1773834228515625
1684,0,0,0.18095970153808594
1685,0,0,0.1823902130126953
1686,0,0,0.19288063049316406
1687,0,0,0.18167495727539062
1688,0,0,0.1811981201171875
1689,0,0,0.18143653869628906
1690,0,0,0.17833709716796875
1691,0,0,0.18525123596191406
1692,0,0,0.18358230590820312
1693,0,0,0.1735687255859375
1694,0,0,0.1666545867919922
1695,0,0,0.15997886657714844
1696,0,0,0.15997886657714844
1697,0,0,0.15974044799804688
1698,0,0,0.1590251922607422
1699,0,0,0.17213821411132812
1700,0,0,0.16498565673828125
1701,0,0,0.16117095947265625
1702,0,0,0.16117095947265625
1703,0,0,0.15997886657714844
1704,0,0,0.1595020294189453
1705,0,0,0.15878677368164062
1706,0,0,0.16164779663085938
1707,0,0,0.16045570373535156
1708,0,0,0.1609325408935547
1709,0,0,0.1595020294189453
1710,0,0,0.16117095947265625
1711,0,0,0.1595020294189453
1712,0,0,0.16069412231445312
1713,0,0,0.15997886657714844
1714,0,0,0.15974044799804688
1715,0,0,0.1614093780517578
1716,0,0,0.1633167266845703
1717,0,0,0.16021728515625
1718,0,0,0.1590251922607422
1719,0,0,0.2079010009765625
1720,0,0,0.19073486328125
1721,0,0,0.19693374633789062
1722,0,0,0.1850128173828125
1723,0,0,0.18286705017089844
1724,0,0,0.17905235290527344
1725,0,0,0.17952919006347656
1726,0,0,0.17714500427246094
1727,0,0,0.18906593322753906
1728,0,0,0.19359588623046875
1729,0,0,0.19288063049316406
1730,0,0,0.18525123596191406
1731,0,0,0.18787384033203125
1732,0,0,0.18095970153808594
1733,0,0,0.1933574676513672
1734,0,0,0.1957416534423828
1735,1,1,0.18596649169921875
1736,0,0,0.1862049102783203
1737,0,0,0.16021728515625
1738,0,0,0.1590251922607422
1739,0,0,0.1761913299560547
1740,0,0,0.18072128295898438
1741,0,0,0.16999244689941406
1742,0,0,0.16164779663085938
1743,0,0,0.16045570373535156
1744,0,0,0.15997886657714844
1745,0,0,0.1614093780517578
1746,0,0,0.16021728515625
1747,0,0,0.16355514526367188
1748,0,0,0.16427040100097656
1749,0,0,0.1614093780517578
1750,0,0,0.1614093780517578
1751,0,0,0.1628398895263672
1752,0,0,0.15854835510253906
1753,0,0,0.16021728515625
1754,0,0,0.15926361083984375
1755,0,0,0.194549560546875
1756,0,0,0.16260147094726562
1757,0,0,0.16641616821289062
1758,0,0,0.1735687255859375
1759,0,0,0.17762184143066406
1760,0,0,0.17714500427246094
1761,0,0,0.18286705017089844
1762,0,0,0.17213821411132812
1763,0,0,0.16260147094726562
1764,0,0,0.16355514526367188
1765,0,0,0.16832351684570312
1766,0,0,0.17595291137695312
1767,0,0,0.17833709716796875
1768,0,0,0.17595291137695312
1769,0,0,0.1773834228515625
1770,0,0,0.18167495727539062
1771,0,0,0.17142295837402344
1772,0,0,0.17571449279785156
1773,0,0,0.22077560424804688
1774,0,0,0.19168853759765625
1775,0,0,0.1652240753173828
1776,0,0,0.1621246337890625
1777,0,0,0.15974044799804688
1778,0,0,0.15926361083984375
1779,0,0,0.1590251922607422
1780,0,0,0.164031982421875
1781,0,0,0.1595020294189453
1782,0,0,0.16021728515625
1783,0,0,0.16021728515625
1784,0,0,0.15974044799804688
1785,0,0,0.16021728515625
1786,0,0,0.1633167266845703
1787,0,0,0.16164779663085938
1788,0,0,0.15997886657714844
1789,0,0,0.16164779663085938
1790,0,0,0.16021728515625
1791,0,0,0.16021728515625
1792,0,0,0.15997886657714844
1793,0,0,0.1933574676513672
1794,0,0,0.16164779663085938
1795,0,0,0.16808509826660156
1796,0,0,0.1647472381591797
1797,0,0,0.16164779663085938
1798,0,0,0.16164779663085938
1799,0,0,0.16188621520996094
1800,0,0,0.16117095947265625
1801,0,1,0.15997886657714844
1802,0,0,0.16069412231445312
1803,0,0,0.16045570373535156
1804,0,0,0.15997886657714844
1805,0,0,0.15926361083984375
1806,0,0,0.16021728515625
1807,0,0,0.17380714416503906
1808,0,0,0.1609325408935547
1809,0,0,0.1595020294189453
1810,0,0,0.1595020294189453
1811,0,0,0.16045570373535156
1812,0,0,0.16236305236816406
1813,0,0,0.1595020294189453
1814,0,0,0.1938343048095703
1815,0,0,0.16045570373535156
1816,0,0,0.16188621520996094
1817,0,0,0.15974044799804688
1818,1,1,0.16021728515625
1819,0,0,0.15926361083984375
1820,0,0,0.15974044799804688
1821,0,0,0.16021728515625
1822,0,0,0.15974044799804688
1823,0,0,0.15997886657714844
1824,0,0,0.16069412231445312
1825,0,0,0.1590251922607422
1826,0,0,0.15926361083984375
1827,0,0,0.15974044799804688
1828,0,0,0.16498565673828125
1829,0,0,0.1590251922607422
1830,0,0,0.16498565673828125
1831,0,0,0.1614093780517578
1832,0,0,0.16069412231445312
1833,0,0,0.16450881958007812
1834,0,0,0.18978118896484375
1835,0,0,0.16236305236816406
1836,0,0,0.16164779663085938
1837,0,0,0.16045570373535156
1838,0,0,0.15974044799804688
1839,0,0,0.15997886657714844
1840,0,0,0.1614093780517578
1841,0,0,0.16021728515625
1842,0,0,0.1595020294189453
1843,0,0,0.15974044799804688
1844,0,0,0.16188621520996094
1845,0,0,0.16045570373535156
1846,0,0,0.1595020294189453
1847,0,0,0.15974044799804688
1848,0,0,0.1595020294189453
1849,0,0,0.16117095947265625
1850,0,0,0.1595020294189453
1851,0,0,0.15974044799804688
1852,0,0,0.1595020294189453
1853,0,0,0.16069412231445312
1854,0,0,0.15997886657714844
1855,0,0,0.19049644470214844
1856,0,0,0.164031982421875
1857,0,0,0.16164779663085938
1858,0,0,0.1595020294189453
1859,0,0,0.16021728515625
1860,0,0,0.1647472381591797
1861,0,0,0.16069412231445312
1862,0,0,0.16069412231445312
1863,0,0,0.1595020294189453
1864,0,0,0.15997886657714844
1865,0,0,0.15854835510253906
1866,0,0,0.15997886657714844
1867,0,0,0.15974044799804688
1868,0,0,0.15997886657714844
1869,0,0,0.1595020294189453
1870,0,0,0.15974044799804688
1871,0,0,0.1595020294189453
1872,0,0,0.16045570373535156
1873,0,0,0.15974044799804688
1874,0,0,0.1595020294189453
1875,0,0,0.18262863159179688
1876,0,0,0.16260147094726562
1877,0,0,0.15926361083984375
1878,0,0,0.16307830810546875
1879,0,0,0.16164779663085938
1880,0,0,0.15926361083984375
1881,0,0,0.16069412231445312
1882,0,0,0.1595020294189453
1883,0,0,0.1609325408935547
1884,0,0,0.16045570373535156
1885,0,0,0.16045570373535156
1886,0,0,0.16069412231445312
1887,0,0,0.1609325408935547
1888,0,0,0.16069412231445312
1889,0,0,0.16045570373535156
1890,0,0,0.16045570373535156
1891,0,0,0.16069412231445312
1892,0,0,0.16164779663085938
1893,0,0,0.1609325408935547
1894,0,0,0.15974044799804688
1895,0,0,0.15997886657714844
1896,0,0,0.17976760864257812
1897,0,0,0.1609325408935547
1898,0,0,0.16117095947265625
1899,0,0,0.16069412231445312
1900,0,0,0.15926361083984375
1901,0,0,0.15974044799804688
1902,0,0,0.1595020294189453
1903,0,0,0.16069412231445312
1904,0,0,0.16021728515625
1905,0,0,0.15997886657714844
1906,2,2,0.15854835510253906
1907,0,0,0.15997886657714844
1908,0,0,0.1621246337890625
1909,0,0,0.16069412231445312
1910,0,0,0.16188621520996094
1911,0,0,0.15926361083984375
1912,0,0,0.16069412231445312
1913,0,0,0.15997886657714844
1914,0,0,0.15974044799804688
1915,0,0,0.15974044799804688
1916,0,0,0.18072128295898438
1917,0,0,0.16188621520996094
1918,0,0,0.16069412231445312
1919,0,0,0.16355514526367188
1920,0,0,0.15878677368164062
1921,0,0,0.15974044799804688
1922,0,0,0.16021728515625
1923,0,0,0.15997886657714844
1924,0,0,0.16164779663085938
1925,0,0,0.15926361083984375
1926,0,0,0.15997886657714844
1927,0,0,0.15926361083984375
1928,0,0,0.16045570373535156
1929,0,0,0.16164779663085938
1930,0,0,0.15997886657714844
1931,0,0,0.1590251922607422
1932,0,0,0.15974044799804688
1933,0,0,0.1595020294189453
1934,0,0,0.15926361083984375
1935,0,0,0.15926361083984375
1936,0,0,0.16045570373535156
1937,0,0,0.1785755157470703
1938,0,0,0.16021728515625
1939,0,0,0.1609325408935547
1940,0,0,0.16069412231445312
1941,0,0,0.15997886657714844
1942,0,0,0.15974044799804688
1943,0,0,0.1595020294189453
1944,0,0,0.1595020294189453
1945,0,0,0.15926361083984375
1946,0,0,0.1609325408935547
1947,0,0,0.16069412231445312
1948,0,0,0.16045570373535156
1949,0,0,0.15974044799804688
1950,0,0,0.15878677368164062
1951,0,0,0.1609325408935547
1952,0,0,0.16069412231445312
1953,0,0,0.16021728515625
1954,0,0,0.15926361083984375
1955,0,0,0.16188621520996094
1956,0,0,0.16236305236816406
1957,0,0,0.16021728515625
1958,0,0,0.17952919006347656
1959,0,0,0.15974044799804688
1960,0,0,0.16069412231445312
1961,1,0,0.1633167266845703
1962,0,0,0.1595020294189453
1963,0,0,0.15878677368164062
1964,0,0,0.16045570373535156
1965,0,0,0.15926361083984375
1966,0,0,0.15997886657714844
1967,0,0,0.15926361083984375
1968,0,0,0.15974044799804688
1969,0,0,0.16069412231445312
1970,0,0,0.15997886657714844
1971,0,0,0.1595020294189453
1972,0,0,0.1614093780517578
1973,1,1,0.16045570373535156
1974,0,0,0.15926361083984375
1975,0,0,0.16832351684570312
1976,0,0,0.16164779663085938
1977,1,1,0.15878677368164062
1978,0,0,0.17714500427246094
1979,0,0,0.1666545867919922
1980,0,0,0.16021728515625
1981,0,0,0.1595020294189453
1982,0,0,0.16021728515625
1983,0,0,0.15854835510253906
1984,0,0,0.15926361083984375
1985,0,0,0.1595020294189453
1986,0,0,0.15997886657714844
1987,0,0,0.15997886657714844
1988,0,0,0.1628398895263672
1989,0,0,0.16021728515625
1990,0,0,0.16069412231445312
1991,0,0,0.16021728515625
1992,0,0,0.1595020294189453
1993,0,0,0.15926361083984375
1994,0,0,0.1595020294189453
1995,0,0,0.16045570373535156
1996,0,0,0.1583099365234375
1997,0,0,0.15997886657714844
1998,0,0,0.1590251922607422
1999,0,0,0.17905235290527344
2000,0,0,0.15997886657714844
2001,1,0,0.16164779663085938
2002,0,0,0.16546249389648438
2003,0,0,0.15878677368164062
2004,0,0,0.16188621520996094
2005,0,0,0.164031982421875
2006,0,0,0.1590251922607422
2007,0,0,0.1595020294189453
2008,0,0,0.16021728515625
2009,0,0,0.16069412231445312
2010,0,0,0.15997886657714844
2011,0,0,0.16045570373535156
2012,0,0,0.15926361083984375
2013,0,0,0.15854835510253906
2014,0,0,0.15974044799804688
2015,0,0,0.15997886657714844
2016,0,0,0.1609325408935547
2017,0,0,0.15997886657714844
2018,1,0,0.1609325408935547
2019,0,0,0.15854835510253906
2020,0,0,0.18167495727539062
2021,0,0,0.15974044799804688
2022,0,0,0.16069412231445312
2023,0,0,0.1609325408935547
2024,0,0,0.1590251922607422
2025,0,0,0.15974044799804688
2026,0,0,0.15974044799804688
2027,0,0,0.16021728515625
2028,0,0,0.15878677368164062
2029,0,0,0.1590251922607422
2030,0,0,0.1621246337890625
2031,0,0,0.1583099365234375
2032,0,0,0.15735626220703125
2033,0,0,0.15974044799804688
2034,0,0,0.1614093780517578
2035,0,0,0.1590251922607422
2036,0,0,0.1628398895263672
2037,0,0,0.15974044799804688
2038,0,0,0.15878677368164062
2039,0,0,0.15926361083984375
2040,0,0,0.1595020294189453
2041,0,0,0.16260147094726562
2042,0,0,0.16164779663085938
2043,0,0,0.15997886657714844
2044,0,0,0.16117095947265625
2045,0,0,0.15974044799804688
2046,0,0,0.15926361083984375
2047,0,0,0.1583099365234375
2048,0,0,0.16450881958007812
2049,0,0,0.1621246337890625
2050,0,0,0.1595020294189453
2051,0,0,0.16045570373535156
2052,0,0,0.16355514526367188
2053,0,0,0.16045570373535156
2054,0,0,0.15974044799804688
2055,0,0,0.1583099365234375
2056,0,0,0.15997886657714844
2057,0,0,0.1583099365234375
2058,0,0,0.1595020294189453
2059,0,0,0.16069412231445312
2060,0,0,0.15878677368164062
2061,0,0,0.17786026000976562
2062,0,0,0.1583099365234375
2063,0,0,0.1633167266845703
2064,0,0,0.16117095947265625
2065,0,0,0.16260147094726562
2066,0,0,0.16045570373535156
2067,1,1,0.16045570373535156
2068,0,0,0.1609325408935547
2069,0,0,0.15926361083984375
2070,0,0,0.15974044799804688
2071,0,0,0.15997886657714844
2072,0,0,0.15854835510253906
2073,0,0,0.1609325408935547
2074,0,0,0.16164779663085938
2075,0,0,0.1590251922607422
2076,0,0,0.1590251922607422
2077,0,0,0.1609325408935547
2078,0,0,0.16069412231445312
2079,0,0,0.1609325408935547
2080,0,0,0.1595020294189453
2081,0,0,0.15854835510253906
2082,0,0,0.18787384033203125
2083,0,0,0.16546249389648438
2084,0,0,0.164031982421875
2085,0,0,0.1628398895263672
2086,0,0,0.16236305236816406
2087,0,0,0.1614093780517578
2088,0,0,0.1652240753173828
2089,0,0,0.1590251922607422
2090,0,0,0.16045570373535156
2091,0,0,0.16450881958007812
2092,0,0,0.16069412231445312
2093,0,0,0.15974044799804688
2094,0,0,0.16164779663085938
2095,0,0,0.15997886657714844
2096,0,0,0.1609325408935547
2097,0,0,0.16069412231445312
2098,0,0,0.16188621520996094
2099,0,0,0.1595020294189453
2100,0,0,0.1685619354248047
2101,0,0,0.18310546875
2102,0,0,0.22363662719726562
2103,0,0,0.1895427703857422
2104,0,0,0.18358230590820312
2105,0,0,0.18477439880371094
2106,0,0,0.1850128173828125
2107,0,0,0.1804828643798828
2108,0,0,0.16808509826660156
2109,0,0,0.1633167266845703
2110,0,0,0.16164779663085938
2111,0,0,0.16117095947265625
2112,0,0,0.1614093780517578
2113,0,0,0.16117095947265625
2114,0,0,0.16045570373535156
2115,0,0,0.16045570373535156
2116,0,0,0.16236305236816406
2117,0,0,0.16021728515625
2118,0,0,0.15974044799804688
2119,0,0,0.1590251922607422
2120,0,0,0.16045570373535156
2121,0,0,0.19669532775878906
2122,0,0,0.1652240753173828
2123,0,0,0.1609325408935547
2124,0,0,0.16117095947265625
2125,0,0,0.1614093780517578
2126,0,0,0.16951560974121094
2127,0,0,0.1609325408935547
2128,0,0,0.15974044799804688
2129,0,0,0.1595020294189453
2130,0,0,0.15878677368164062
2131,0,0,0.15997886657714844
2132,0,0,0.1621246337890625
2133,0,0,0.16021728515625
2134,0,0,0.15974044799804688
2135,0,0,0.1609325408935547
2136,0,0,0.16164779663085938
2137,0,0,0.15974044799804688
2138,0,0,0.15974044799804688
2139,0,0,0.1609325408935547
2140,0,0,0.1595020294189453
2141,0,0,0.15974044799804688
2142,0,0,0.1628398895263672
2143,0,0,0.17595291137695312
2144,0,0,0.15997886657714844
2145,0,0,0.15997886657714844
2146,0,0,0.16045570373535156
2147,0,0,0.16021728515625
2148,0,0,0.16236305236816406
2149,0,0,0.15926361083984375
2150,0,0,0.16021728515625
2151,0,0,0.15974044799804688
2152,0,0,0.1614093780517578
2153,0,0,0.15974044799804688
2154,0,0,0.1609325408935547
2155,0,0,0.16188621520996094
2156,0,0,0.15926361083984375
2157,0,0,0.1590251922607422
2158,0,0,0.15997886657714844
2159,0,0,0.1609325408935547
2160,0,0,0.1595020294189453
2161,0,0,0.16117095947265625
2162,0,0,0.179290771484375
2163,0,0,0.16045570373535156
2164,0,0,0.16498565673828125
2165,0,0,0.16045570373535156
2166,0,0,0.15997886657714844
2167,0,0,0.15997886657714844
2168,0,0,0.16021728515625
2169,0,0,0.16021728515625
2170,0,0,0.1628398895263672
2171,0,0,0.16021728515625
2172,0,0,0.1678466796875
2173,0,0,0.16164779663085938
2174,0,0,0.16045570373535156
2175,0,0,0.16260147094726562
2176,0,0,0.15974044799804688
2177,0,0,0.16021728515625
2178,0,0,0.16045570373535156
2179,0,0,0.15997886657714844
2180,0,0,0.1633167266845703
2181,0,0,0.16117095947265625
2182,0,0,0.16045570373535156
2183,0,0,0.18143653869628906
2184,0,0,0.16045570373535156
2185,0,0,0.16021728515625
2186,0,0,0.16188621520996094
2187,0,0,0.16021728515625
2188,0,0,0.16021728515625
2189,0,0,0.17571449279785156
2190,0,0,0.1842975616455078
2191,0,0,0.1780986785888672
2192,0,0,0.17905235290527344
2193,0,0,0.1804828643798828
2194,0,0,0.1780986785888672
2195,0,0,0.19097328186035156
2196,1,1,0.18405914306640625
2197,0,0,0.18668174743652344
2198,0,0,0.1800060272216797
2199,0,0,0.18548965454101562
2200,0,0,0.19502639770507812
2201,0,0,0.3178119659423828
2202,0,0,0.15401840209960938
2203,0,0,0.14853477478027344
2204,0,0,0.1552104949951172
2205,0,0,0.1614093780517578
2206,0,0,0.16951560974121094
2207,0,0,0.1609325408935547
2208,0,0,0.15974044799804688
2209,0,0,0.15926361083984375
2210,0,0,0.16021728515625
2211,0,0,0.15997886657714844
2212,0,0,0.1633167266845703
2213,0,0,0.16260147094726562
2214,0,0,0.16069412231445312
2215,0,0,0.15974044799804688
2216,0,0,0.16069412231445312
2217,0,0,0.1609325408935547
2218,0,0,0.16069412231445312
2219,0,0,0.16021728515625
2220,0,0,0.15997886657714844
2221,0,0,0.18644332885742188
2222,0,0,0.1614093780517578
2223,0,0,0.1609325408935547
2224,0,0,0.1595020294189453
2225,0,0,0.1590251922607422
2226,0,0,0.1590251922607422
2227,0,0,0.15974044799804688
2228,0,0,0.16260147094726562
2229,0,0,0.16069412231445312
2230,0,0,0.15878677368164062
2231,0,0,0.16021728515625
2232,0,0,0.15878677368164062
2233,0,0,0.1595020294189453
2234,0,0,0.15878677368164062
2235,0,0,0.15926361083984375
2236,0,0,0.1628398895263672
2237,0,0,0.15997886657714844
2238,0,0,0.15997886657714844
2239,0,0,0.15997886657714844
2240,0,0,0.15974044799804688
2241,0,0,0.18262863159179688
2242,0,0,0.16498565673828125
2243,0,0,0.16164779663085938
2244,0,0,0.1621246337890625
2245,0,0,0.16069412231445312
2246,0,0,0.1595020294189453
2247,0,0,0.1609325408935547
2248,0,0,0.1595020294189453
2249,0,0,0.15997886657714844
2250,0,0,0.16069412231445312
2251,0,0,0.1595020294189453
2252,0,0,0.15997886657714844
2253,0,0,0.15926361083984375
2254,0,0,0.16355514526367188
2255,0,0,0.16307830810546875
2256,0,0,0.15997886657714844
2257,0,0,0.15997886657714844
2258,0,0,0.16236305236816406
2259,0,0,0.15997886657714844
2260,0,0,0.16307830810546875
2261,0,0,0.16045570373535156
2262,0,0,0.18358230590820312
2263,0,0,0.16069412231445312
2264,0,0,0.1595020294189453
2265,0,0,0.16045570373535156
2266,0,0,0.16045570373535156
2267,0,0,0.16021728515625
2268,0,0,0.15974044799804688
2269,0,0,0.1614093780517578
2270,0,0,0.15997886657714844
2271,0,0,0.15974044799804688
2272,0,0,0.15735626220703125
2273,0,0,0.16045570373535156
2274,0,0,0.1609325408935547
2275,0,0,0.16117095947265625
2276,0,0,0.16379356384277344
2277,0,0,0.1609325408935547
2278,0,0,0.1621246337890625
2279,0,0,0.16117095947265625
2280,0,0,0.1609325408935547
2281,0,0,0.16164779663085938
2282,0,0,0.17905235290527344
2283,0,0,0.16260147094726562
2284,0,0,0.1678466796875
2285,0,0,0.1633167266845703
2286,0,0,0.16164779663085938
2287,0,0,0.16069412231445312
2288,0,0,0.16760826110839844
2289,0,0,0.1609325408935547
2290,0,0,0.1609325408935547
2291,0,0,0.16045570373535156
2292,0,0,0.1609325408935547
2293,0,0,0.16164779663085938
2294,0,0,0.16045570373535156
2295,0,0,0.1614093780517578
2296,0,0,0.16188621520996094
2297,0,0,0.16045570373535156
2298,0,0,0.1614093780517578
2299,0,0,0.16117095947265625
2300,0,0,0.16117095947265625
2301,0,0,0.16164779663085938
2302,0,0,0.16188621520996094
2303,0,0,0.18310546875
2304,0,0,0.16117095947265625
2305,0,0,0.16188621520996094
2306,0,0,0.1614093780517578
2307,0,0,0.1614093780517578
2308,0,0,0.1647472381591797
2309,0,0,0.16188621520996094
2310,0,0,0.16236305236816406
2311,0,0,0.1690387725830078
2312,0,0,0.16236305236816406
2313,0,0,0.1614093780517578
2314,0,0,0.16069412231445312
2315,0,0,0.1609325408935547
2316,0,0,0.16164779663085938
2317,0,0,0.16045570373535156
2318,0,0,0.16069412231445312
2319,0,0,0.1595020294189453
2320,0,0,0.1614093780517578
2321,0,0,0.16069412231445312
2322,0,0,0.16117095947265625
2323,0,0,0.17952919006347656
2324,0,0,0.16546249389648438
2325,0,0,0.1652240753173828
2326,0,0,0.1609325408935547
2327,0,0,0.1647472381591797
2328,0,0,0.1614093780517578
2329,0,0,0.16069412231445312
2330,0,0,0.16117095947265625
2331,0,0,0.16188621520996094
2332,0,0,0.16117095947265625
2333,0,0,0.1609325408935547
2334,0,0,0.16188621520996094
2335,0,0,0.1614093780517578
2336,0,0,0.16307830810546875
2337,0,0,0.16307830810546875
2338,0,0,0.1614093780517578
2339,0,0,0.1609325408935547
2340,0,0,0.1666545867919922
2341,0,0,0.16069412231445312
2342,0,0,0.16021728515625
2343,0,0,0.16498565673828125
2344,0,0,0.1780986785888672
2345,0,0,0.16188621520996094
2346,0,0,0.1614093780517578
2347,0,0,0.1609325408935547
2348,0,0,0.1609325408935547
2349,0,0,0.16117095947265625
2350,0,0,0.16021728515625
2351,0,0,0.1609325408935547
2352,0,0,0.16117095947265625
2353,0,0,0.1614093780517578
2354,0,0,0.15997886657714844
2355,0,0,0.1614093780517578
2356,0,0,0.16260147094726562
2357,0,0,0.16021728515625
2358,0,0,0.16117095947265625
2359,0,0,0.16117095947265625
2360,0,0,0.16164779663085938
2361,0,0,0.16021728515625
2362,0,0,0.16045570373535156
2363,0,0,0.16117095947265625
2364,0,0,0.18215179443359375
2365,0,0,0.16188621520996094
2366,0,0,0.16164779663085938
2367,0,0,0.15997886657714844
2368,0,0,0.1609325408935547
2369,0,0,0.16045570373535156
2370,0,0,0.16117095947265625
2371,0,0,0.16450881958007812
2372,0,0,0.16260147094726562
2373,0,0,0.16236305236816406
2374,0,0,0.16045570373535156
2375,0,0,0.16069412231445312
2376,0,0,0.16021728515625
2377,0,0,0.1614093780517578
2378,0,0,0.16021728515625
2379,0,0,0.1609325408935547
2380,0,0,0.16045570373535156
2381,0,0,0.16164779663085938
2382,0,0,0.16021728515625
2383,0,0,0.16117095947265625
2384,0,0,0.15997886657714844
2385,0,0,0.18095970153808594
2386,0,0,0.1633167266845703
2387,0,0,0.1647472381591797
2388,0,0,0.1647472381591797
2389,0,0,0.1609325408935547
2390,0,0,0.16069412231445312
2391,0,0,0.1614093780517578
2392,0,0,0.16164779663085938
2393,0,0,0.16117095947265625
2394,0,0,0.16164779663085938
2395,0,0,0.1614093780517578
2396,0,0,0.16164779663085938
2397,0,0,0.1614093780517578
2398,0,0,0.16021728515625
2399,0,0,0.1614093780517578
2400,0,0,0.16069412231445312
2401,0,0,0.16188621520996094
2402,0,0,0.1621246337890625
2403,0,0,0.16164779663085938
2404,0,0,0.1633167266845703
2405,0,0,0.1609325408935547
2406,0,0,0.16427040100097656
2407,0,0,0.16069412231445312
2408,0,0,0.16260147094726562
2409,0,0,0.16021728515625
2410,0,0,0.1614093780517578
2411,0,0,0.16117095947265625
2412,0,0,0.15974044799804688
2413,0,0,0.1614093780517578
2414,0,0,0.1614093780517578
2415,0,0,0.15997886657714844
2416,0,0,0.16045570373535156
2417,0,0,0.1595020294189453
2418,0,0,0.16069412231445312
2419,0,0,0.16069412231445312
2420,0,0,0.1621246337890625
2421,0,0,0.1609325408935547
2422,0,0,0.16117095947265625
2423,0,0,0.1595020294189453
2424,0,0,0.16164779663085938
2425,0,0,0.1633167266845703
2426,0,0,0.18167495727539062
2427,0,0,0.1614093780517578
2428,0,0,0.16260147094726562
2429,0,0,0.16188621520996094
2430,0,0,0.1621246337890625
2431,0,0,0.16045570373535156
2432,0,0,0.1595020294189453
2433,0,0,0.16117095947265625
2434,0,0,0.1614093780517578
2435,0,0,0.16045570373535156
2436,0,0,0.1647472381591797
2437,0,0,0.164031982421875
2438,0,0,0.16021728515625
2439,0,0,0.16045570373535156
2440,0,0,0.16021728515625
2441,0,0,0.16164779663085938
2442,0,0,0.16069412231445312
2443,0,0,0.16069412231445312
2444,0,0,0.16045570373535156
2445,0,0,0.16117095947265625
2446,0,0,0.16164779663085938
2447,0,0,0.17976760864257812
2448,0,0,0.16069412231445312
2449,0,0,0.1621246337890625
2450,0,0,0.1614093780517578
2451,0,0,0.16164779663085938
2452,0,0,0.16379356384277344
2453,0,0,0.16188621520996094
2454,0,0,0.1652240753173828
2455,0,0,0.16188621520996094
2456,0,0,0.16045570373535156
2457,0,0,0.1621246337890625
2458,0,0,0.16260147094726562
2459,0,0,0.1633167266845703
2460,0,0,0.16069412231445312
2461,0,0,0.16069412231445312
2462,0,0,0.16307830810546875
2463,0,0,0.16021728515625
2464,0,0,0.1614093780517578
2465,0,0,0.1614093780517578
2466,0,0,0.16117095947265625
2467,0,0,0.20360946655273438
2468,0,0,0.16760826110839844
2469,0,0,0.16236305236816406
2470,0,0,0.16045570373535156
2471,0,0,0.1614093780517578
2472,0,0,0.1614093780517578
2473,0,0,0.16069412231445312
2474,0,0,0.16069412231445312
2475,0,0,0.16117095947265625
2476,0,0,0.16045570373535156
2477,0,0,0.15997886657714844
2478,0,0,0.1621246337890625
2479,0,0,0.1723766326904297
2480,0,0,0.16117095947265625
2481,0,0,0.1621246337890625
2482,0,0,0.1614093780517578
2483,0,0,0.16045570373535156
2484,0,0,0.1652240753173828
2485,0,0,0.1621246337890625
2486,0,0,0.16236305236816406
2487,0,0,0.16260147094726562
2488,0,0,0.16379356384277344
2489,0,0,0.1614093780517578
2490,0,0,0.1621246337890625
2491,0,0,0.1614093780517578
2492,0,0,0.1614093780517578
2493,0,0,0.16045570373535156
2494,0,0,0.16236305236816406
2495,0,0,0.16188621520996094
2496,0,0,0.16164779663085938
2497,0,0,0.16164779663085938
2498,0,0,0.16117095947265625
2499,0,0,0.16164779663085938
2500,0,0,0.1633167266845703
2501,0,0,0.16045570373535156
2502,0,0,0.1609325408935547
2503,0,0,0.16069412231445312
2504,0,0,0.15974044799804688
2505,0,0,0.16021728515625
2506,0,0,0.1628398895263672
2507,0,0,0.1614093780517578
2508,0,0,0.20003318786621094
2509,0,0,0.16498565673828125
2510,0,0,0.16570091247558594
2511,0,0,0.16260147094726562
2512,0,0,0.16117095947265625
2513,0,0,0.16260147094726562
2514,0,0,0.1621246337890625
2515,0,0,0.16570091247558594
2516,0,0,0.1881122589111328
2517,0,0,0.18143653869628906
2518,0,0,0.1811981201171875
2519,0,0,0.19502639770507812
2520,0,0,0.17595291137695312
2521,0,0,0.1697540283203125
2522,0,0,0.16307830810546875
2523,0,0,0.1621246337890625
2524,0,0,0.16021728515625
2525,0,0,0.17213821411132812
2526,0,0,0.18262863159179688
2527,0,0,0.2865791320800781
2528,0,0,0.20051002502441406
2529,0,0,0.1938343048095703
2530,0,0,0.1766681671142578
2531,0,0,0.1678466796875
2532,0,0,0.16951560974121094
2533,0,0,0.1697540283203125
2534,0,0,0.16736984252929688
2535,0,0,0.16808509826660156
2536,0,0,0.17881393432617188
2537,0,0,0.18477439880371094
2538,0,0,0.1761913299560547
2539,0,0,0.18358230590820312
2540,0,0,0.1876354217529297
2541,0,0,0.18334388732910156
2542,0,0,0.23651123046875
2543,0,0,0.18835067749023438
2544,0,0,0.21767616271972656
2545,0,0,0.17404556274414062
2546,0,0,0.16260147094726562
2547,0,0,0.16188621520996094
2548,0,0,0.164031982421875
2549,0,0,0.16117095947265625
2550,0,0,0.16117095947265625
2551,0,0,0.1614093780517578
2552,0,0,0.1614093780517578
2553,0,0,0.3552436828613281
2554,0,0,0.18858909606933594
2555,0,0,0.16546249389648438
2556,0,0,0.1621246337890625
2557,0,0,0.1609325408935547
2558,0,0,0.16117095947265625
2559,0,0,0.16188621520996094
2560,0,0,0.16069412231445312
2561,0,0,0.16021728515625
2562,0,0,0.1609325408935547
2563,0,0,0.18978118896484375
2564,0,0,0.16427040100097656
2565,0,0,0.16164779663085938
2566,0,0,0.16069412231445312
2567,0,0,0.1628398895263672
2568,0,0,0.16307830810546875
2569,0,0,0.1621246337890625
2570,0,0,0.16117095947265625
2571,0,0,0.15997886657714844
2572,0,0,0.16045570373535156
2573,0,0,0.1609325408935547
2574,0,0,0.1633167266845703
2575,0,0,0.16236305236816406
2576,0,0,0.1621246337890625
2577,0,0,0.1609325408935547
2578,0,0,0.16045570373535156
2579,0,0,0.16117095947265625
2580,0,0,0.1633167266845703
2581,0,0,0.1609325408935547
2582,0,0,0.16164779663085938
2583,0,0,0.18095970153808594
2584,0,0,0.1628398895263672
2585,0,0,0.15997886657714844
2586,0,0,0.16379356384277344
2587,0,0,0.16164779663085938
2588,0,0,0.16260147094726562
2589,0,0,0.16546249389648438
2590,0,0,0.18024444580078125
2591,0,0,0.1697540283203125
2592,0,0,0.171661376953125
2593,0,0,0.164031982421875
2594,0,0,0.16021728515625
2595,0,0,0.1621246337890625
2596,0,0,0.1621246337890625
2597,0,0,0.16164779663085938
2598,0,0,0.16021728515625
2599,0,0,0.16164779663085938
2600,0,0,0.16188621520996094
2601,0,0,0.16069412231445312
2602,0,0,0.16260147094726562
2603,0,0,0.20360946655273438
2604,0,0,0.1666545867919922
2605,0,0,0.16498565673828125
2606,0,0,0.1633167266845703
2607,0,0,0.1614093780517578
2608,0,0,0.18167495727539062
2609,0,0,0.1888275146484375
2610,0,0,0.18525123596191406
2611,0,0,0.17952919006347656
2612,0,0,0.1804828643798828
2613,0,0,0.18358230590820312
2614,0,0,0.17976760864257812
2615,0,0,0.17189979553222656
2616,0,0,0.16498565673828125
2617,0,0,0.17595291137695312
2618,0,0,0.17976760864257812
2619,0,0,0.17595291137695312
2620,0,0,0.1621246337890625
2621,0,0,0.1614093780517578
2622,0,0,0.1621246337890625
2623,0,0,0.14448165893554688
2624,0,0,0.1571178436279297
2625,0,0,0.1575946807861328
2626,0,0,0.16188621520996094
2627,0,0,0.16236305236816406
2628,0,0,0.1647472381591797
2629,0,0,0.16188621520996094
2630,0,0,0.16117095947265625
2631,0,0,0.1595020294189453
2632,0,0,0.16117095947265625
2633,0,0,0.15997886657714844
2634,0,0,0.16164779663085938
2635,0,0,0.16188621520996094
2636,0,0,0.16546249389648438
2637,0,0,0.16188621520996094
2638,0,0,0.16164779663085938
2639,0,0,0.16164779663085938
2640,0,0,0.1614093780517578
2641,0,0,0.18477439880371094
2642,0,0,0.16498565673828125
2643,0,0,0.16164779663085938
2644,0,0,0.16450881958007812
2645,0,0,0.16260147094726562
2646,0,0,0.16260147094726562
2647,0,0,0.16832351684570312
2648,0,0,0.16188621520996094
2649,0,0,0.16236305236816406
2650,0,0,0.16307830810546875
2651,0,0,0.16021728515625
2652,0,0,0.16045570373535156
2653,0,0,0.16021728515625
2654,0,0,0.16117095947265625
2655,0,0,0.16021728515625
2656,0,0,0.16069412231445312
2657,0,0,0.1621246337890625
2658,0,0,0.1609325408935547
2659,0,0,0.16045570373535156
2660,0,0,0.16379356384277344
2661,0,0,0.1614093780517578
2662,0,0,0.18024444580078125
2663,0,0,0.1621246337890625
2664,0,0,0.16260147094726562
2665,0,0,0.1628398895263672
2666,0,0,0.16069412231445312
2667,0,0,0.1609325408935547
2668,0,0,0.1621246337890625
2669,0,0,0.16260147094726562
2670,0,0,0.16164779663085938
2671,0,0,0.16546249389648438
2672,0,0,0.16188621520996094
2673,0,0,0.16045570373535156
2674,0,0,0.16164779663085938
2675,0,0,0.1633167266845703
2676,0,0,0.16188621520996094
2677,0,0,0.1614093780517578
2678,0,0,0.15997886657714844
2679,0,0,0.16069412231445312
2680,0,0,0.16188621520996094
2681,0,0,0.1609325408935547
2682,0,0,0.17952919006347656
2683,0,0,0.1628398895263672
2684,0,0,0.16164779663085938
2685,0,0,0.1621246337890625
2686,0,0,0.1628398895263672
2687,0,0,0.16188621520996094
2688,0,0,0.1614093780517578
2689,0,0,0.16021728515625
2690,0,0,0.1609325408935547
2691,0,0,0.16021728515625
2692,0,0,0.16355514526367188
2693,0,0,0.16021728515625
2694,0,0,0.16188621520996094
2695,0,0,0.16570091247558594
2696,0,0,0.17952919006347656
2697,0,0,0.18334388732910156
2698,0,0,0.18167495727539062
2699,0,0,0.1811981201171875
2700,0,0,0.18024444580078125
2701,0,0,0.1838207244873047
2702,0,0,0.22935867309570312
2703,0,0,0.19216537475585938
2704,0,0,0.18787384033203125
2705,0,0,0.18143653869628906
2706,0,0,0.1823902130126953
2707,0,0,0.1881122589111328
2708,0,0,0.1800060272216797
2709,0,0,0.1728534698486328
2710,0,0,0.1647472381591797
2711,0,0,0.1633167266845703
2712,0,0,0.16117095947265625
2713,0,0,0.1614093780517578
2714,0,0,0.16188621520996094
2715,0,0,0.1609325408935547
2716,0,0,0.1614093780517578
2717,0,0,0.16069412231445312
2718,0,0,0.16188621520996094
2719,0,0,0.16188621520996094
2720,0,0,0.1621246337890625
2721,0,0,0.17380714416503906
2722,0,0,0.1614093780517578
2723,0,0,0.16045570373535156
2724,0,0,0.16427040100097656
2725,0,0,0.16164779663085938
2726,0,0,0.16164779663085938
2727,0,0,0.16069412231445312
2728,0,0,0.16188621520996094
2729,0,0,0.16164779663085938
2730,0,0,0.16117095947265625
2731,0,0,0.16045570373535156
2732,0,0,0.1609325408935547
2733,0,0,0.16069412231445312
2734,0,0,0.16117095947265625
2735,0,0,0.16069412231445312
2736,0,0,0.16355514526367188
2737,0,0,0.1609325408935547
2738,0,0,0.16188621520996094
2739,0,0,0.16117095947265625
2740,0,0,0.16450881958007812
2741,0,0,0.18453598022460938
2742,0,0,0.16164779663085938
2743,0,0,0.1614093780517578
2744,0,0,0.15997886657714844
2745,0,0,0.16021728515625
2746,0,0,0.1614093780517578
2747,0,0,0.15974044799804688
2748,0,0,0.16045570373535156
2749,0,0,0.16069412231445312
2750,0,0,0.16164779663085938
2751,0,0,0.16164779663085938
2752,0,0,0.1609325408935547
2753,0,0,0.16021728515625
2754,0,0,0.171661376953125
2755,0,0,0.1614093780517578
2756,0,0,0.16379356384277344
2757,0,0,0.16641616821289062
2758,0,0,0.15997886657714844
2759,0,0,0.15997886657714844
2760,0,0,0.16117095947265625
2761,0,0,0.1876354217529297
2762,0,0,0.16808509826660156
2763,0,0,0.16236305236816406
2764,0,0,0.16164779663085938
2765,0,0,0.1609325408935547
2766,0,0,0.1609325408935547
2767,0,0,0.16117095947265625
2768,0,0,0.16069412231445312
2769,0,0,0.1609325408935547
2770,0,0,0.1609325408935547
2771,0,0,0.16069412231445312
2772,0,0,0.16260147094726562
2773,0,0,0.16117095947265625
2774,0,0,0.16021728515625
2775,0,0,0.15974044799804688
2776,0,0,0.1609325408935547
2777,0,0,0.16188621520996094
2778,0,0,0.16021728515625
2779,0,0,0.1690387725830078
2780,0,0,0.16307830810546875
2781,0,0,0.16069412231445312
2782,0,0,0.1842975616455078
2783,0,0,0.16164779663085938
2784,0,0,0.1621246337890625
2785,0,0,0.16021728515625
2786,0,0,0.16260147094726562
2787,0,0,0.16117095947265625
2788,0,0,0.16427040100097656
2789,0,0,0.1614093780517578
2790,0,0,0.1609325408935547
2791,0,0,0.1614093780517578
2792,0,0,0.16188621520996094
2793,0,0,0.16164779663085938
2794,0,0,0.15997886657714844
2795,0,0,0.1595020294189453
2796,0,0,0.16164779663085938
2797,0,0,0.16045570373535156
2798,0,0,0.1609325408935547
2799,0,0,0.16117095947265625
2800,0,0,0.1614093780517578
2801,0,0,0.16188621520996094
2802,0,0,0.18143653869628906
2803,0,0,0.16236305236816406
2804,0,0,0.16498565673828125
2805,0,0,0.1614093780517578
2806,0,0,0.1609325408935547
2807,0,0,0.16164779663085938
2808,0,0,0.1609325408935547
2809,0,0,0.15997886657714844
2810,0,0,0.16117095947265625
2811,0,0,0.16164779663085938
2812,0,0,0.16117095947265625
2813,0,0,0.16069412231445312
2814,0,0,0.15997886657714844
2815,0,0,0.17595291137695312
2816,0,0,0.16188621520996094
2817,0,0,0.1609325408935547
2818,0,0,0.16164779663085938
2819,0,0,0.15997886657714844
2820,0,0,0.16379356384277344
2821,0,0,0.16307830810546875
2822,0,0,0.16069412231445312
2823,0,0,0.16641616821289062
2824,0,0,0.16188621520996094
2825,0,0,0.16021728515625
2826,0,0,0.1614093780517578
2827,0,0,0.16045570373535156
2828,0,0,0.16117095947265625
2829,0,0,0.16045570373535156
2830,0,0,0.15997886657714844
2831,0,0,0.16045570373535156
2832,0,0,0.15997886657714844
2833,0,0,0.15997886657714844
2834,0,0,0.15997886657714844
2835,0,0,0.16069412231445312
2836,0,0,0.1647472381591797
2837,0,0,0.16069412231445312
2838,0,0,0.16188621520996094
2839,0,0,0.16570091247558594
2840,0,0,0.1609325408935547
2841,0,0,0.15997886657714844
2842,0,0,0.16188621520996094
2843,0,0,0.1800060272216797
2844,0,0,0.1800060272216797
2845,0,0,0.1785755157470703
2846,0,0,0.186920166015625
2847,0,0,0.17952919006347656
2848,0,0,0.17261505126953125
2849,0,0,0.1723766326904297
2850,0,0,0.1862049102783203
2851,0,0,0.19359588623046875
2852,0,0,0.19693374633789062
2853,0,0,0.18787384033203125
2854,0,0,0.1800060272216797
2855,0,0,0.16951560974121094
2856,0,0,0.17404556274414062
2857,0,0,0.16999244689941406
2858,0,0,0.1723766326904297
2859,0,0,0.16927719116210938
2860,0,0,0.17189979553222656
2861,0,0,0.22268295288085938
2862,0,0,0.17833709716796875
2863,0,0,0.16427040100097656
2864,0,0,0.16188621520996094
2865,0,0,0.16236305236816406
2866,0,0,0.16260147094726562
2867,0,0,0.15997886657714844
2868,0,0,0.16307830810546875
2869,0,0,0.16236305236816406
2870,0,0,0.16164779663085938
2871,0,0,0.1621246337890625
2872,0,0,0.1614093780517578
2873,0,0,0.16069412231445312
2874,0,0,0.16021728515625
2875,0,0,0.15997886657714844
2876,0,0,0.16307830810546875
2877,0,0,0.16117095947265625
2878,0,0,0.16164779663085938
2879,0,0,0.15997886657714844
2880,0,0,0.1614093780517578
2881,0,0,0.18548965454101562
2882,0,0,0.1633167266845703
2883,0,0,0.16236305236816406
2884,0,0,0.16188621520996094
2885,0,0,0.16164779663085938
2886,0,0,0.164031982421875
2887,0,0,0.16188621520996094
2888,0,0,0.1614093780517578
2889,0,0,0.1609325408935547
2890,0,0,0.16164779663085938
2891,0,0,0.16069412231445312
2892,0,0,0.1621246337890625
2893,0,0,0.16117095947265625
2894,0,0,0.16045570373535156
2895,0,0,0.1614093780517578
2896,0,0,0.16164779663085938
2897,0,0,0.1609325408935547
2898,0,0,0.16045570373535156
2899,0,0,0.16117095947265625
2900,0,0,0.16379356384277344
2901,0,0,0.1609325408935547
2902,0,0,0.1823902130126953
2903,0,0,0.1614093780517578
2904,0,0,0.16021728515625
2905,0,0,0.16069412231445312
2906,0,0,0.16045570373535156
2907,0,0,0.16117095947265625
2908,0,0,0.15974044799804688
2909,0,0,0.16045570373535156
2910,0,0,0.15974044799804688
2911,0,0,0.16045570373535156
2912,0,0,0.16069412231445312
2913,0,0,0.1614093780517578
2914,0,0,0.16808509826660156
2915,0,0,0.17881393432617188
2916,0,0,0.1773834228515625
2917,0,0,0.1838207244873047
2918,0,0,0.17309188842773438
2919,0,0,0.1728534698486328
2920,0,0,0.1690387725830078
2921,0,0,0.2002716064453125
2922,0,0,0.1728534698486328
2923,0,0,0.1614093780517578
2924,0,0,0.16450881958007812
2925,0,0,0.16236305236816406
2926,0,0,0.16069412231445312
2927,0,0,0.1614093780517578
2928,0,0,0.16164779663085938
2929,0,0,0.16021728515625
2930,0,0,0.16117095947265625
2931,0,0,0.16236305236816406
2932,0,0,0.1628398895263672
2933,0,0,0.1595020294189453
2934,0,0,0.16045570373535156
2935,0,0,0.16117095947265625
2936,0,0,0.164031982421875
2937,0,0,0.16188621520996094
2938,0,0,0.1609325408935547
2939,0,0,0.1609325408935547
2940,0,0,0.16164779663085938
2941,0,0,0.1609325408935547
2942,0,0,0.18858909606933594
2943,0,0,0.16260147094726562
2944,0,0,0.16069412231445312
2945,0,0,0.16260147094726562
2946,0,0,0.1621246337890625
2947,0,0,0.16069412231445312
2948,0,0,0.16307830810546875
2949,0,0,0.16164779663085938
2950,0,0,0.16069412231445312
2951,0,0,0.1609325408935547
2952,0,0,0.1609325408935547
2953,0,0,0.16117095947265625
2954,0,0,0.16069412231445312
2955,0,0,0.16117095947265625
2956,0,0,0.15997886657714844
2957,0,0,0.16021728515625
2958,0,0,0.16021728515625
2959,0,0,0.16999244689941406
2960,0,0,0.16188621520996094
2961,0,0,0.16260147094726562
2962,0,0,0.1857280731201172
2963,0,0,0.1633167266845703
2964,0,0,0.164031982421875
2965,0,0,0.16236305236816406
2966,0,0,0.16188621520996094
2967,0,0,0.16045570373535156
2968,0,0,0.16236305236816406
2969,0,0,0.1609325408935547
2970,0,0,0.16117095947265625
2971,0,0,0.16260147094726562
2972,0,0,0.1621246337890625
2973,0,0,0.16117095947265625
2974,0,0,0.16188621520996094
2975,0,0,0.17118453979492188
2976,0,0,0.16379356384277344
2977,0,0,0.1633167266845703
2978,0,0,0.16188621520996094
2979,0,0,0.16307830810546875
2980,0,0,0.16260147094726562
2981,0,0,0.1621246337890625
2982,0,0,0.18405914306640625
2983,0,0,0.1723766326904297
2984,0,0,0.16307830810546875
2985,0,0,0.16260147094726562
2986,0,0,0.16260147094726562
2987,0,0,0.1614093780517578
2988,0,0,0.16069412231445312
2989,0,0,0.16307830810546875
2990,0,0,0.16188621520996094
2991,0,0,0.16117095947265625
2992,0,0,0.1614093780517578
2993,0,0,0.1659393310546875
2994,0,0,0.17786026000976562
2995,0,0,0.18858909606933594
2996,0,0,0.18286705017089844
2997,0,0,0.18286705017089844
2998,0,0,0.18286705017089844
2999,0,0,0.1811981201171875
3000,0,0,0.18310546875
3001,0,0,0.19288063049316406
3002,0,0,0.1678466796875
3003,0,0,0.16188621520996094
3004,0,0,0.171661376953125
3005,0,0,0.17690658569335938
3006,0,0,0.17523765563964844
3007,0,0,0.18835067749023438
3008,0,0,0.19240379333496094
3009,0,0,0.18405914306640625
3010,0,0,0.17523765563964844
3011,0,0,0.16832351684570312
3012,0,0,0.16736984252929688
3013,0,0,0.16617774963378906
3014,0,0,0.16498565673828125
3015,0,0,0.16617774963378906
3016,0,0,0.17309188842773438
3017,0,0,0.179290771484375
3018,0,0,0.17523765563964844
3019,0,0,0.18095970153808594
3020,0,0,0.2276897430419922
3021,0,0,0.1914501190185547
3022,0,0,0.21719932556152344
3023,0,0,0.19121170043945312
3024,0,0,0.18262863159179688
3025,0,0,0.1671314239501953
3026,0,0,0.16236305236816406
3027,0,0,0.16069412231445312
3028,0,0,0.16307830810546875
3029,0,0,0.16045570373535156
3030,0,0,0.17309188842773438
3031,0,0,0.3707408905029297
3032,0,0,0.17070770263671875
3033,0,0,0.16570091247558594
3034,0,0,0.16379356384277344
3035,0,0,0.16188621520996094
3036,0,0,0.1652240753173828
3037,0,0,0.19288063049316406
3038,0,0,0.1671314239501953
3039,0,0,0.1614093780517578
3040,0,0,0.16117095947265625
3041,0,0,0.16117095947265625
3042,0,0,0.1614093780517578
3043,0,0,0.16117095947265625
3044,0,0,0.16355514526367188
3045,0,0,0.16069412231445312
3046,0,0,0.16188621520996094
3047,0,0,0.16069412231445312
3048,0,0,0.16117095947265625
3049,0,0,0.16045570373535156
3050,0,0,0.16236305236816406
3051,0,0,0.16021728515625
3052,0,0,0.16117095947265625
3053,0,0,0.16164779663085938
3054,0,0,0.16164779663085938
3055,0,0,0.16069412231445312
3056,0,0,0.1621246337890625
3057,0,0,0.1614093780517578
3058,0,0,0.18143653869628906
3059,0,0,0.16164779663085938
3060,0,0,0.16307830810546875
3061,0,0,0.1628398895263672
3062,0,0,0.16236305236816406
3063,0,0,0.1614093780517578
3064,0,0,0.16188621520996094
3065,0,0,0.16164779663085938
3066,0,0,0.16188621520996094
3067,0,0,0.16164779663085938
3068,0,0,0.16069412231445312
3069,0,0,0.1621246337890625
3070,0,0,0.16164779663085938
3071,0,0,0.1621246337890625
3072,0,0,0.16164779663085938
3073,0,0,0.1609325408935547
3074,0,0,0.16069412231445312
3075,0,0,0.16188621520996094
3076,0,0,0.16427040100097656
3077,0,0,0.1621246337890625
3078,0,0,0.18024444580078125
3079,0,0,0.16188621520996094
3080,0,0,0.1614093780517578
3081,0,0,0.16069412231445312
3082,0,0,0.1609325408935547
3083,0,0,0.1614093780517578
3084,0,0,0.16427040100097656
3085,0,0,0.17762184143066406
3086,0,0,0.16880035400390625
3087,0,0,0.17142295837402344
3088,0,0,0.15997886657714844
3089,0,0,0.1633167266845703
3090,0,0,0.1609325408935547
3091,0,0,0.16045570373535156
3092,0,0,0.1621246337890625
3093,0,0,0.1621246337890625
3094,0,0,0.1633167266845703
3095,0,0,0.1614093780517578
3096,0,0,0.16188621520996094
3097,0,0,0.1609325408935547
3098,0,0,0.1857280731201172
3099,0,0,0.17595291137695312
3100,0,0,0.17118453979492188
3101,0,0,0.1621246337890625
3102,0,0,0.16236305236816406
3103,0,0,0.16260147094726562
3104,0,0,0.16117095947265625
3105,0,0,0.16236305236816406
3106,0,0,0.1609325408935547
3107,0,0,0.16045570373535156
3108,0,0,0.1633167266845703
3109,0,0,0.1621246337890625
3110,0,0,0.18167495727539062
3111,0,0,0.19025802612304688
3112,0,0,0.18334388732910156
3113,0,0,0.17976760864257812
3114,0,0,0.179290771484375
3115,0,0,0.18024444580078125
3116,0,0,0.1785755157470703
3117,0,0,0.33092498779296875
3118,0,0,0.18072128295898438
3119,0,0,0.179290771484375
3120,0,0,0.18477439880371094
3121,0,0,0.17642974853515625
3122,0,0,0.1685619354248047
3123,0,0,0.16307830810546875
3124,0,0,0.16570091247558594
3125,0,0,0.16188621520996094
3126,0,0,0.16236305236816406
3127,0,0,0.1621246337890625
3128,0,0,0.16188621520996094
3129,0,0,0.15997886657714844
3130,0,0,0.16069412231445312
3131,0,0,0.1614093780517578
3132,0,0,0.16069412231445312
3133,0,0,0.16164779663085938
3134,0,0,0.16117095947265625
3135,0,0,0.1614093780517578
3136,0,0,0.20575523376464844
3137,0,0,0.16736984252929688
3138,0,0,0.16236305236816406
3139,0,0,0.16164779663085938
3140,0,0,0.16760826110839844
3141,0,0,0.17261505126953125
3142,0,0,0.16379356384277344
3143,0,0,0.1609325408935547
3144,0,0,0.15926361083984375
3145,0,0,0.16069412231445312
3146,0,0,0.16117095947265625
3147,0,0,0.15997886657714844
3148,0,0,0.16021728515625
3149,0,0,0.16045570373535156
3150,0,0,0.16164779663085938
3151,0,0,0.1704692840576172
3152,0,0,0.16164779663085938
3153,0,0,0.16021728515625
3154,0,0,0.16045570373535156
3155,0,0,0.16021728515625
3156,0,0,0.19073486328125
3157,0,0,0.1819133758544922
3158,0,0,0.16641616821289062
3159,0,0,0.1621246337890625
3160,0,0,0.15997886657714844
3161,0,0,0.16260147094726562
3162,0,0,0.16164779663085938
3163,0,0,0.1621246337890625
3164,0,0,0.1595020294189453
3165,0,0,0.164031982421875
3166,0,0,0.164031982421875
3167,0,0,0.1609325408935547
3168,0,0,0.16188621520996094
3169,0,0,0.1621246337890625
3170,0,0,0.16164779663085938
3171,0,0,0.1614093780517578
3172,0,0,0.1628398895263672
3173,0,0,0.16045570373535156
3174,0,0,0.1614093780517578
3175,0,0,0.16236305236816406
3176,0,0,0.1862049102783203
3177,0,0,0.16546249389648438
3178,0,0,0.16736984252929688
3179,0,0,0.16617774963378906
3180,0,0,0.16021728515625
3181,0,0,0.16236305236816406
3182,0,0,0.16164779663085938
3183,0,0,0.16117095947265625
3184,0,0,0.16045570373535156
3185,0,0,0.1628398895263672
3186,0,0,0.16117095947265625
3187,0,0,0.16069412231445312
3188,0,0,0.1633167266845703
3189,0,0,0.16260147094726562
3190,0,0,0.1609325408935547
3191,0,0,0.1621246337890625
3192,0,0,0.16236305236816406
3193,0,0,0.16164779663085938
3194,0,0,0.1666545867919922
3195,0,0,0.1659393310546875
3196,0,0,0.16999244689941406
3197,0,0,0.1919269561767578
3198,0,0,0.18787384033203125
3199,0,0,0.1850128173828125
3200,0,0,0.1838207244873047
3201,0,0,0.18072128295898438
3202,0,0,0.19097328186035156
3203,0,0,0.1888275146484375
3204,0,0,0.18525123596191406
3205,0,0,0.18739700317382812
3206,0,0,0.17523765563964844
3207,0,0,0.18835067749023438
3208,0,0,0.186920166015625
3209,0,0,0.1761913299560547
3210,0,0,0.16641616821289062
3211,0,0,0.16260147094726562
3212,0,0,0.16164779663085938
3213,0,0,0.16188621520996094
3214,0,0,0.20170211791992188
3215,0,0,0.1685619354248047
3216,0,0,0.1633167266845703
3217,0,0,0.16188621520996094
3218,0,0,0.1614093780517578
3219,0,0,0.16188621520996094
3220,0,0,0.1621246337890625
3221,0,0,0.1633167266845703
3222,0,0,0.16236305236816406
3223,0,0,0.16069412231445312
3224,0,0,0.15997886657714844
3225,0,0,0.15997886657714844
3226,0,0,0.16117095947265625
3227,0,0,0.1614093780517578
3228,0,0,0.16045570373535156
3229,0,0,0.16021728515625
3230,0,0,0.16069412231445312
3231,0,0,0.1609325408935547
3232,0,0,0.1614093780517578
3233,0,0,0.1614093780517578
3234,0,0,0.16117095947265625
3235,0,0,0.1842975616455078
3236,0,0,0.1697540283203125
3237,0,0,0.1633167266845703
3238,0,0,0.1614093780517578
3239,0,0,0.16188621520996094
3240,0,0,0.1614093780517578
3241,0,0,0.16117095947265625
3242,0,0,0.15926361083984375
3243,0,0,0.16021728515625
3244,0,0,0.1614093780517578
3245,0,0,0.1621246337890625
3246,0,0,0.16045570373535156
3247,0,0,0.1652240753173828
3248,0,0,0.16570091247558594
3249,0,0,0.16164779663085938
3250,0,0,0.16164779663085938
3251,0,0,0.16379356384277344
3252,0,0,0.16307830810546875
3253,0,0,0.16117095947265625
3254,0,0,0.16188621520996094
3255,0,0,0.1850128173828125
3256,0,0,0.1628398895263672
3257,0,0,0.16689300537109375
3258,0,0,0.16450881958007812
3259,0,0,0.16117095947265625
3260,0,0,0.16069412231445312
3261,0,0,0.16069412231445312
3262,0,0,0.16117095947265625
3263,0,0,0.16164779663085938
3264,0,0,0.1621246337890625
3265,0,0,0.1609325408935547
3266,0,0,0.16045570373535156
3267,0,0,0.16164779663085938
3268,0,0,0.16355514526367188
3269,0,0,0.16045570373535156
3270,0,0,0.16045570373535156
3271,0,0,0.16164779663085938
3272,0,0,0.1614093780517578
3273,0,0,0.1621246337890625
3274,0,0,0.16117095947265625
3275,0,0,0.16069412231445312
3276,0,0,0.1697540283203125
3277,0,0,0.1647472381591797
3278,0,0,0.16307830810546875
3279,0,0,0.16069412231445312
3280,0,0,0.16069412231445312
3281,0,0,0.16117095947265625
3282,0,0,0.16045570373535156
3283,0,0,0.16021728515625
3284,0,0,0.16307830810546875
3285,0,0,0.1614093780517578
3286,0,0,0.1621246337890625
3287,0,0,0.16188621520996094
3288,0,0,0.16021728515625
3289,0,0,0.15974044799804688
3290,0,0,0.15974044799804688
3291,0,0,0.1609325408935547
3292,0,0,0.1633167266845703
3293,0,0,0.1609325408935547
3294,0,0,0.16117095947265625
3295,0,0,0.1614093780517578
3296,0,0,0.1819133758544922
3297,0,0,0.1621246337890625
3298,0,0,0.1609325408935547
3299,0,0,0.1614093780517578
3300,0,0,0.1628398895263672
3301,0,0,0.1621246337890625
3302,0,0,0.16069412231445312
3303,0,0,0.15997886657714844
3304,0,0,0.1614093780517578
3305,0,0,0.15997886657714844
3306,0,0,0.1609325408935547
3307,0,0,0.1609325408935547
3308,0,0,0.16164779663085938
3309,0,0,0.16117095947265625
3310,0,0,0.16117095947265625
3311,0,0,0.16069412231445312
3312,0,0,0.16164779663085938
3313,0,0,0.16045570373535156
3314,0,0,0.16069412231445312
3315,0,0,0.15974044799804688
3316,0,0,0.1628398895263672
3317,0,0,0.18143653869628906
3318,0,0,0.16164779663085938
3319,0,0,0.16832351684570312
3320,0,0,0.16188621520996094
3321,0,0,0.16164779663085938
3322,0,0,0.16355514526367188
3323,0,0,0.16045570373535156
3324,0,0,0.16045570373535156
3325,0,0,0.16188621520996094
3326,0,0,0.16188621520996094
3327,0,0,0.16021728515625
3328,0,0,0.15997886657714844
3329,0,0,0.16045570373535156
3330,0,0,0.16045570373535156
3331,0,0,0.16021728515625
3332,0,0,0.16164779663085938
3333,0,0,0.16427040100097656
3334,0,0,0.16260147094726562
3335,0,0,0.16427040100097656
3336,0,0,0.16498565673828125
3337,0,0,0.18358230590820312
3338,0,0,0.1621246337890625
3339,0,0,0.16069412231445312
3340,0,0,0.16355514526367188
3341,0,0,0.16117095947265625
3342,0,0,0.16164779663085938
3343,0,0,0.16164779663085938
3344,0,0,0.16188621520996094
3345,0,0,0.16117095947265625
3346,0,0,0.1614093780517578
3347,0,0,0.15997886657714844
3348,0,0,0.164031982421875
3349,0,0,0.1621246337890625
3350,0,0,0.16164779663085938
3351,0,0,0.1609325408935547
3352,0,0,0.15974044799804688
3353,0,0,0.1614093780517578
3354,0,0,0.16045570373535156
3355,0,0,0.1614093780517578
3356,0,0,0.16117095947265625
3357,0,0,0.16069412231445312
3358,0,0,0.1819133758544922
3359,0,0,0.16355514526367188
3360,0,0,0.16117095947265625
3361,0,0,0.16117095947265625
3362,0,0,0.16045570373535156
3363,0,0,0.16045570373535156
3364,0,0,0.16164779663085938
3365,0,0,0.1609325408935547
3366,0,0,0.16069412231445312
3367,0,0,0.15854835510253906
3368,0,0,0.1621246337890625
3369,0,0,0.15997886657714844
3370,0,0,0.1614093780517578
3371,0,0,0.16069412231445312
3372,0,0,0.15974044799804688
3373,0,0,0.16045570373535156
3374,0,0,0.15997886657714844
3375,0,0,0.15854835510253906
3376,0,0,0.16164779663085938
3377,0,0,0.1609325408935547
3378,0,0,0.17976760864257812
3379,0,0,0.1678466796875
3380,0,0,0.16498565673828125
3381,0,0,0.16069412231445312
3382,0,0,0.1621246337890625
3383,0,0,0.16117095947265625
3384,0,0,0.1609325408935547
3385,0,0,0.16117095947265625
3386,0,0,0.1614093780517578
3387,0,0,0.16307830810546875
3388,0,0,0.16021728515625
3389,0,0,0.16188621520996094
3390,0,0,0.16069412231445312
3391,0,0,0.16117095947265625
3392,0,0,0.16117095947265625
3393,0,0,0.16117095947265625
3394,0,0,0.1621246337890625
3395,0,0,0.1609325408935547
3396,0,0,0.16379356384277344
3397,0,0,0.1609325408935547
3398,0,0,0.16164779663085938
3399,0,0,0.1842975616455078
3400,0,0,0.1614093780517578
3401,0,0,0.1614093780517578
3402,0,0,0.1595020294189453
3403,0,0,0.16069412231445312
3404,0,0,0.1609325408935547
3405,0,0,0.1609325408935547
3406,0,0,0.16188621520996094
3407,0,0,0.16236305236816406
3408,0,0,0.16069412231445312
3409,0,0,0.15997886657714844
3410,0,0,0.1609325408935547
3411,0,0,0.16188621520996094
3412,0,0,0.16427040100097656
3413,0,0,0.1609325408935547
3414,0,0,0.1609325408935547
3415,0,0,0.16045570373535156
3416,0,0,0.16069412231445312
3417,0,0,0.16021728515625
3418,0,0,0.1614093780517578
3419,0,0,0.18143653869628906
3420,0,0,0.1609325408935547
3421,0,0,0.1621246337890625
3422,0,0,0.16355514526367188
3423,0,0,0.1621246337890625
3424,0,0,0.16236305236816406
3425,0,0,0.16117095947265625
3426,0,0,0.1609325408935547
3427,0,0,0.16164779663085938
3428,0,0,0.164031982421875
3429,0,0,0.16188621520996094
3430,0,0,0.16188621520996094
3431,0,0,0.1614093780517578
3432,0,0,0.1609325408935547
3433,0,0,0.16164779663085938
3434,0,0,0.16045570373535156
3435,0,0,0.16021728515625
3436,0,0,0.1614093780517578
3437,0,0,0.16045570373535156
3438,0,0,0.16355514526367188
3439,0,0,0.16069412231445312
3440,0,0,0.1842975616455078
3441,0,0,0.17976760864257812
3442,0,0,0.18143653869628906
3443,0,0,0.18906593322753906
3444,0,0,0.18739700317382812
3445,0,0,0.18262863159179688
3446,0,0,0.17333030700683594
3447,0,0,0.17499923706054688
3448,0,0,0.1742839813232422
3449,0,0,0.17142295837402344
3450,0,0,0.1704692840576172
3451,0,0,0.16689300537109375
3452,0,0,0.1685619354248047
3453,0,0,0.1728534698486328
3454,0,0,0.16880035400390625
3455,0,0,0.1633167266845703
3456,0,0,0.16188621520996094
3457,0,0,0.15997886657714844
3458,0,0,0.16355514526367188
3459,0,0,0.21886825561523438
3460,0,0,0.17118453979492188
3461,0,0,0.16427040100097656
3462,0,0,0.1609325408935547
3463,0,0,0.1609325408935547
3464,0,0,0.1609325408935547
3465,0,0,0.16069412231445312
3466,0,0,0.16069412231445312
3467,0,0,0.16045570373535156
3468,0,0,0.15926361083984375
3469,0,0,0.1609325408935547
3470,0,0,0.16021728515625
3471,0,0,0.16045570373535156
3472,0,0,0.1614093780517578
3473,0,0,0.1628398895263672
3474,0,0,0.16069412231445312
3475,0,0,0.16164779663085938
3476,0,0,0.16236305236816406
3477,0,0,0.16117095947265625
3478,0,0,0.16069412231445312
3479,0,0,0.18405914306640625
3480,0,0,0.16355514526367188
3481,0,0,0.16236305236816406
3482,0,0,0.16188621520996094
3483,0,0,0.16117095947265625
3484,0,0,0.16045570373535156
3485,0,0,0.1609325408935547
3486,0,0,0.164031982421875
3487,0,0,0.16736984252929688
3488,0,0,0.16236305236816406
3489,0,0,0.16117095947265625
3490,0,0,0.16236305236816406
3491,0,0,0.1614093780517578
3492,0,0,0.16450881958007812
3493,0,0,0.16260147094726562
3494,0,0,0.16164779663085938
3495,0,0,0.1614093780517578
3496,0,0,0.16188621520996094
3497,0,0,0.1609325408935547
3498,0,0,0.16021728515625
3499,0,0,0.1609325408935547
3500,0,0,0.16498565673828125
3501,0,0,0.16236305236816406
3502,0,0,0.164031982421875
3503,0,0,0.16355514526367188
3504,0,0,0.16260147094726562
3505,0,0,0.1633167266845703
3506,0,0,0.1647472381591797
3507,0,0,0.16188621520996094
3508,0,0,0.164031982421875
3509,0,0,0.16236305236816406
3510,0,0,0.16045570373535156
3511,0,0,0.1609325408935547
3512,0,0,0.16045570373535156
3513,0,0,0.15974044799804688
3514,0,0,0.16069412231445312
3515,0,0,0.16069412231445312
3516,0,0,0.15974044799804688
3517,0,0,0.16045570373535156
3518,0,0,0.1609325408935547
3519,0,0,0.16069412231445312
3520,0,0,0.1819133758544922
3521,0,0,0.16164779663085938
3522,0,0,0.16164779663085938
3523,0,0,0.16188621520996094
3524,0,0,0.16379356384277344
3525,0,0,0.1614093780517578
3526,0,0,0.16117095947265625
3527,0,0,0.16164779663085938
3528,0,0,0.16927719116210938
3529,0,0,0.171661376953125
3530,0,0,0.16498565673828125
3531,0,0,0.1633167266845703
3532,0,0,0.16069412231445312
3533,0,0,0.16164779663085938
3534,0,0,0.1609325408935547
3535,0,0,0.1614093780517578
3536,0,0,0.16307830810546875
3537,0,0,0.16236305236816406
3538,0,0,0.15926361083984375
3539,0,0,0.15807151794433594
3540,0,0,0.18286705017089844
3541,0,0,0.17189979553222656
3542,0,1,0.16236305236816406
3543,0,1,0.16021728515625
3544,0,0,0.15807151794433594
3545,0,1,0.1590251922607422
3546,0,1,0.1575946807861328
3547,0,1,0.15997886657714844
3548,0,0,0.1595020294189453
3549,0,0,0.1590251922607422
3550,0,0,0.156402587890625
3551,0,0,0.156402587890625
3552,0,0,0.1575946807861328
3553,0,0,0.15735626220703125
3554,0,0,0.1571178436279297
3555,0,0,0.1571178436279297
3556,0,0,0.16069412231445312
3557,0,0,0.1590251922607422
3558,0,0,0.1571178436279297
3559,0,0,0.1583099365234375
3560,0,0,0.1575946807861328
3561,0,0,0.18310546875
3562,0,0,0.17714500427246094
3563,0,0,0.18095970153808594
3564,0,0,0.18906593322753906
3565,0,0,0.18167495727539062
3566,0,0,0.17261505126953125
3567,0,0,0.18167495727539062
3568,0,0,0.18668174743652344
3569,0,0,0.18095970153808594
3570,0,0,0.18453598022460938
3571,0,0,0.18858909606933594
3572,0,0,0.18262863159179688
3573,0,0,0.1857280731201172
3574,0,0,0.17333030700683594
3575,0,0,0.1723766326904297
3576,0,0,0.1659393310546875
3577,0,0,0.1690387725830078
3578,0,0,0.17642974853515625
3579,0,0,0.21719932556152344
3580,0,0,0.1881122589111328
3581,0,0,0.1747608184814453
3582,0,0,0.1685619354248047
3583,0,0,0.1671314239501953
3584,0,0,0.1723766326904297
3585,0,0,0.17213821411132812
3586,0,0,0.1666545867919922
3587,0,0,0.16117095947265625
3588,0,0,0.16021728515625
3589,0,0,0.1590251922607422
3590,0,0,0.1590251922607422
3591,0,0,0.1590251922607422
3592,0,0,0.1590251922607422
3593,0,0,0.15854835510253906
3594,0,0,0.1590251922607422
3595,0,0,0.1614093780517578
3596,0,0,0.16069412231445312
3597,0,0,0.1614093780517578
3598,0,0,0.16045570373535156
3599,0,0,0.1995563507080078
3600,0,0,0.16498565673828125
3601,0,0,0.16260147094726562
3602,0,0,0.16069412231445312
3603,0,0,0.16164779663085938
3604,0,0,0.1628398895263672
3605,0,0,0.1609325408935547
3606,0,0,0.16045570373535156
3607,0,0,0.16045570373535156
3608,0,0,0.1595020294189453
3609,0,0,0.16117095947265625
3610,0,0,0.156402587890625
3611,0,0,0.16188621520996094
3612,0,0,0.15997886657714844
3613,0,0,0.15926361083984375
3614,0,0,0.16117095947265625
3615,0,0,0.16164779663085938
3616,0,0,0.16045570373535156
3617,0,0,0.1609325408935547
3618,0,0,0.15997886657714844
3619,0,0,0.17786026000976562
3620,0,0,0.1742839813232422
3621,0,0,0.16355514526367188
3622,0,0,0.16117095947265625
3623,0,0,0.1761913299560547
3624,0,0,0.1881122589111328
3625,0,0,0.18095970153808594
3626,1,0,0.18548965454101562
3627,0,0,0.17976760864257812
3628,0,0,0.18596649169921875
3629,0,0,0.19240379333496094
3630,0,0,0.1881122589111328
3631,0,0,0.1823902130126953
3632,0,0,0.18358230590820312
3633,0,0,0.17762184143066406
3634,0,0,0.17881393432617188
3635,0,0,0.1723766326904297
3636,0,0,0.1785755157470703
3637,0,0,0.20837783813476562
3638,0,0,0.17023086547851562
3639,0,0,0.1652240753173828
3640,0,0,0.16450881958007812
3641,0,0,0.16021728515625
3642,0,0,0.1609325408935547
3643,0,0,0.1609325408935547
3644,0,0,0.16188621520996094
3645,0,0,0.16069412231445312
3646,0,0,0.16117095947265625
3647,0,0,0.16021728515625
3648,0,0,0.16045570373535156
3649,0,0,0.16021728515625
3650,0,0,0.16117095947265625
3651,0,0,0.1609325408935547
3652,0,0,0.1647472381591797
3653,0,0,0.16069412231445312
3654,0,0,0.16069412231445312
3655,0,0,0.1709461212158203
3656,0,0,0.1614093780517578
3657,0,0,0.1621246337890625
3658,0,0,0.17309188842773438
3659,0,0,0.164031982421875
3660,0,0,0.16117095947265625
3661,0,0,0.16307830810546875
3662,0,0,0.16617774963378906
3663,0,0,0.1609325408935547
3664,0,0,0.16045570373535156
3665,0,0,0.15974044799804688
3666,0,0,0.16164779663085938
3667,0,0,0.16427040100097656
3668,0,0,0.16379356384277344
3669,0,0,0.16164779663085938
3670,0,0,0.16450881958007812
3671,0,0,0.16069412231445312
3672,0,0,0.15997886657714844
3673,0,0,0.16021728515625
3674,0,0,0.1609325408935547
3675,0,0,0.16117095947265625
3676,0,0,0.1614093780517578
3677,0,0,0.1575946807861328
3678,0,0,0.18548965454101562
3679,0,0,0.164031982421875
3680,0,1,0.1614093780517578
3681,0,0,0.16427040100097656
3682,0,0,0.16307830810546875
3683,0,0,0.16450881958007812
3684,0,0,0.15974044799804688
3685,0,0,0.16069412231445312
3686,0,0,0.16260147094726562
3687,0,0,0.1614093780517578
3688,0,0,0.16117095947265625
3689,0,0,0.1621246337890625
3690,0,0,0.1609325408935547
3691,0,0,0.1621246337890625
3692,0,0,0.1609325408935547
3693,0,0,0.16117095947265625
3694,0,0,0.16045570373535156
3695,0,1,0.15997886657714844
3696,0,0,0.16188621520996094
3697,0,0,0.15997886657714844
3698,0,0,0.16021728515625
3699,0,0,0.17023086547851562
3700,0,0,0.16736984252929688
3701,0,0,0.16379356384277344
3702,0,0,0.1647472381591797
3703,0,0,0.1609325408935547
3704,0,0,0.1633167266845703
3705,0,0,0.17499923706054688
3706,0,0,0.19049644470214844
3707,0,0,0.18405914306640625
3708,0,0,0.18715858459472656
3709,0,0,0.20360946655273438
3710,0,0,0.20837783813476562
3711,0,0,0.20694732666015625
3712,0,0,0.20360946655273438
3713,0,0,0.19550323486328125
3714,0,0,0.1976490020751953
3715,0,0,0.1919269561767578
3716,0,0,0.2338886260986328
3717,0,0,0.1957416534423828
3718,0,0,0.17833709716796875
3719,0,0,0.18143653869628906
3720,0,0,0.1823902130126953
3721,0,0,0.1881122589111328
3722,0,0,0.18072128295898438
3723,0,0,0.17952919006347656
3724,0,0,0.19216537475585938
3725,0,0,0.1842975616455078
3726,0,0,0.171661376953125
3727,0,0,0.1678466796875
3728,0,0,0.1633167266845703
3729,0,0,0.16379356384277344
3730,0,0,0.1652240753173828
3731,0,0,0.16427040100097656
3732,0,0,0.17213821411132812
3733,0,0,0.17976760864257812
3734,0,0,0.19407272338867188
3735,0,0,0.1842975616455078
3736,0,0,0.19049644470214844
3737,0,0,0.1888275146484375
3738,0,0,0.22864341735839844
3739,0,0,0.18143653869628906
3740,0,0,0.1766681671142578
3741,0,0,0.16760826110839844
3742,0,0,0.164031982421875
3743,0,0,0.16021728515625
3744,0,0,0.1633167266845703
3745,0,0,0.16546249389648438
3746,0,0,0.3631114959716797
3747,0,0,0.1780986785888672
3748,0,0,0.1647472381591797
3749,0,0,0.16260147094726562
3750,0,0,0.16117095947265625
3751,0,0,0.17023086547851562
3752,0,0,0.16307830810546875
3753,0,0,0.16260147094726562
3754,0,0,0.1614093780517578
3755,0,0,0.1609325408935547
3756,0,0,0.1614093780517578
3757,0,0,0.16069412231445312
3758,0,0,0.17070770263671875
3759,0,0,0.16236305236816406
3760,0,0,0.16069412231445312
3761,0,0,0.16164779663085938
3762,0,0,0.15974044799804688
3763,0,0,0.15974044799804688
3764,0,0,0.1633167266845703
3765,0,0,0.1614093780517578
3766,0,0,0.1628398895263672
3767,0,0,0.16069412231445312
3768,0,0,0.16236305236816406
3769,0,0,0.16164779663085938
3770,0,0,0.16117095947265625
3771,0,0,0.26035308837890625
3772,0,0,0.16498565673828125
3773,0,0,0.1614093780517578
3774,0,0,0.16188621520996094
3775,0,0,0.16164779663085938
3776,0,0,0.16069412231445312
3777,0,0,0.16117095947265625
3778,0,0,0.16069412231445312
3779,0,0,0.1614093780517578
3780,0,0,0.16379356384277344
3781,0,0,0.1609325408935547
3782,0,0,0.15997886657714844
3783,0,0,0.16164779663085938
3784,0,0,0.1614093780517578
3785,0,0,0.1609325408935547
3786,0,0,0.1652240753173828
3787,0,0,0.16236305236816406
3788,0,0,0.1614093780517578
3789,0,0,0.1614093780517578
3790,0,0,0.16069412231445312
3791,0,0,0.18715858459472656
3792,0,0,0.1633167266845703
3793,0,0,0.16069412231445312
3794,0,0,0.1609325408935547
3795,0,0,0.1614093780517578
3796,0,0,0.1647472381591797
3797,0,0,0.16236305236816406
3798,0,0,0.16021728515625
3799,0,0,0.16045570373535156
3800,0,0,0.15974044799804688
3801,0,0,0.16164779663085938
3802,0,0,0.16164779663085938
3803,0,0,0.1621246337890625
3804,0,0,0.16117095947265625
3805,0,0,0.1609325408935547
3806,0,0,0.15974044799804688
3807,0,0,0.16164779663085938
3808,0,0,0.16164779663085938
3809,0,0,0.16045570373535156
3810,0,0,0.16117095947265625
3811,0,0,0.16069412231445312
3812,0,0,0.1659393310546875
3813,0,0,0.16164779663085938
3814,0,0,0.16069412231445312
3815,0,0,0.1723766326904297
3816,0,0,0.171661376953125
3817,0,0,0.16236305236816406
3818,0,0,0.1609325408935547
3819,0,0,0.16260147094726562
3820,0,0,0.1590251922607422
3821,0,0,0.1621246337890625
3822,0,0,0.16355514526367188
3823,0,0,0.1704692840576172
3824,0,0,0.16117095947265625
3825,0,0,0.16164779663085938
3826,0,0,0.1621246337890625
3827,0,0,0.16117095947265625
3828,0,0,0.26154518127441406
3829,0,0,0.16927719116210938
3830,0,0,0.1671314239501953
3831,0,0,0.18286705017089844
3832,0,0,0.1633167266845703
3833,0,0,0.16260147094726562
3834,0,0,0.1614093780517578
3835,0,0,0.16117095947265625
3836,0,0,0.16450881958007812
3837,0,0,0.1614093780517578
3838,0,0,0.16117095947265625
3839,0,0,0.16260147094726562
3840,0,0,0.16236305236816406
3841,0,0,0.1621246337890625
3842,0,0,0.16188621520996094
3843,0,0,0.1614093780517578
3844,0,0,0.164031982421875
3845,0,0,0.1628398895263672
3846,0,0,0.1609325408935547
3847,0,0,0.16117095947265625
3848,0,0,0.16164779663085938
3849,0,0,0.16164779663085938
3850,0,0,0.16117095947265625
3851,0,0,0.16045570373535156
3852,0,0,0.16355514526367188
3853,0,0,0.16236305236816406
3854,0,0,0.16117095947265625
3855,1,0,0.16117095947265625
3856,0,0,0.16260147094726562
3857,0,0,0.1735687255859375
3858,0,0,0.1652240753173828
3859,0,0,0.16117095947265625
3860,0,0,0.164031982421875
3861,0,0,0.1609325408935547
3862,0,0,0.1609325408935547
3863,0,0,0.16117095947265625
3864,0,0,0.1621246337890625
3865,0,0,0.16188621520996094
3866,0,0,0.16021728515625
3867,0,0,0.1621246337890625
3868,0,0,0.1595020294189453
3869,0,0,0.16164779663085938
3870,0,0,0.16117095947265625
3871,0,0,0.16069412231445312
3872,0,0,0.18525123596191406
3873,0,0,0.16260147094726562
3874,0,0,0.16069412231445312
3875,0,0,0.16117095947265625
3876,0,0,0.16069412231445312
3877,0,0,0.16236305236816406
3878,0,0,0.16117095947265625
3879,0,0,0.16021728515625
3880,0,0,0.16117095947265625
3881,0,0,0.16045570373535156
3882,0,0,0.16188621520996094
3883,0,0,0.1628398895263672
3884,0,0,0.16069412231445312
3885,0,0,0.1614093780517578
3886,0,0,0.16355514526367188
3887,0,0,0.15926361083984375
3888,0,0,0.16069412231445312
3889,0,0,0.16069412231445312
3890,0,0,0.16069412231445312
3891,0,0,0.15997886657714844
3892,0,0,0.16450881958007812
3893,0,0,0.16641616821289062
3894,0,0,0.16045570373535156
3895,0,0,0.15997886657714844
3896,0,0,0.16188621520996094
3897,0,0,0.16427040100097656
3898,0,0,0.16498565673828125
3899,0,0,0.16069412231445312
3900,0,0,0.15997886657714844
3901,0,0,0.15997886657714844
3902,0,0,0.16045570373535156
3903,0,0,0.16164779663085938
3904,0,0,0.16188621520996094
3905,0,0,0.16117095947265625
3906,0,0,0.1614093780517578
3907,0,0,0.16164779663085938
3908,0,0,0.1628398895263672
3909,0,0,0.16236305236816406
3910,0,0,0.16021728515625
3911,0,0,0.1614093780517578
3912,0,0,0.16021728515625
3913,0,0,0.18644332885742188
3914,0,0,0.1800060272216797
3915,0,0,0.1773834228515625
3916,0,0,0.1804828643798828
3917,0,0,0.1895427703857422
3918,0,0,0.17786026000976562
3919,0,0,0.17881393432617188
3920,0,0,0.17642974853515625
3921,0,0,0.1709461212158203
3922,0,0,0.17023086547851562
3923,0,0,0.1671314239501953
3924,0,0,0.1690387725830078
3925,0,0,0.17070770263671875
3926,0,0,0.16880035400390625
3927,0,0,0.17309188842773438
3928,0,0,0.16498565673828125
3929,0,0,0.16021728515625
3930,0,0,0.16117095947265625
3931,0,0,0.1614093780517578
3932,0,0,0.19741058349609375
3933,0,0,0.16546249389648438
3934,0,0,0.16260147094726562
3935,0,0,0.1621246337890625
3936,0,0,0.16498565673828125
3937,0,0,0.1621246337890625
3938,0,0,0.16117095947265625
3939,0,0,0.16045570373535156
3940,0,0,0.16236305236816406
3941,0,0,0.1614093780517578
3942,0,0,0.1609325408935547
3943,0,0,0.16069412231445312
3944,0,0,0.1609325408935547
3945,0,0,0.16045570373535156
3946,0,0,0.1609325408935547
3947,0,0,0.16164779663085938
3948,0,0,0.16021728515625
3949,0,0,0.16069412231445312
3950,0,0,0.1595020294189453
3951,0,0,0.16045570373535156
3952,0,0,0.1621246337890625
3953,0,0,0.16570091247558594
3954,0,0,0.16117095947265625
3955,0,0,0.1614093780517578
3956,0,0,0.1621246337890625
3957,0,0,0.1609325408935547
3958,0,0,0.16188621520996094
3959,0,0,0.1609325408935547
3960,0,0,0.15974044799804688
3961,0,0,0.1609325408935547
3962,0,0,0.16045570373535156
3963,0,0,0.16236305236816406
3964,0,0,0.16188621520996094
3965,0,0,0.16069412231445312
3966,0,0,0.16045570373535156
3967,0,0,0.1609325408935547
3968,0,0,0.16021728515625
3969,0,0,0.16021728515625
3970,0,0,0.16069412231445312
3971,0,0,0.16069412231445312
3972,0,0,0.16307830810546875
3973,0,0,0.18167495727539062
3974,0,0,0.16260147094726562
3975,0,0,0.1614093780517578
3976,0,0,0.1628398895263672
3977,0,0,0.1678466796875
3978,0,0,0.164031982421875
3979,0,0,0.16188621520996094
3980,0,0,0.16117095947265625
3981,0,0,0.16045570373535156
3982,0,0,0.16045570373535156
3983,0,0,0.15974044799804688
3984,0,0,0.16045570373535156
3985,0,0,0.16069412231445312
3986,0,0,0.16760826110839844
3987,0,0,0.1633167266845703
3988,0,0,0.16355514526367188
3989,0,0,0.16236305236816406
3990,0,0,0.16117095947265625
3991,0,0,0.17595291137695312
3992,0,0,0.16117095947265625
3993,0,0,0.1926422119140625
3994,0,0,0.16760826110839844
3995,0,0,0.16188621520996094
3996,0,0,0.1659393310546875
3997,0,0,0.16355514526367188
3998,0,0,0.1614093780517578
3999,0,0,0.16307830810546875
4000,0,0,0.1609325408935547
4001,0,0,0.16045570373535156
4002,0,0,0.16164779663085938
4003,0,0,0.16164779663085938
4004,0,0,0.1633167266845703
4005,0,0,0.1614093780517578
4006,0,0,0.16045570373535156
4007,0,0,0.16045570373535156
4008,0,0,0.16069412231445312
4009,0,0,0.16188621520996094
4010,0,0,0.1609325408935547
4011,0,0,0.1614093780517578
4012,0,0,0.1628398895263672
4013,0,0,0.16236305236816406
4014,0,0,0.1823902130126953
4015,0,0,0.1633167266845703
4016,0,0,0.16164779663085938
4017,0,0,0.16069412231445312
4018,0,0,0.16045570373535156
4019,0,0,0.1621246337890625
4020,0,0,0.16260147094726562
4021,0,0,0.1609325408935547
4022,0,0,0.16117095947265625
4023,0,0,0.16117095947265625
4024,0,0,0.16117095947265625
4025,0,0,0.16021728515625
4026,0,0,0.16117095947265625
4027,0,0,0.1614093780517578
4028,0,0,0.16188621520996094
4029,0,0,0.16188621520996094
4030,0,0,0.1609325408935547
4031,0,0,0.16117095947265625
4032,0,0,0.16045570373535156
4033,0,0,0.16045570373535156
4034,0,0,0.16045570373535156
4035,0,0,0.1647472381591797
4036,0,0,0.16450881958007812
4037,0,0,0.16117095947265625
4038,0,0,0.16188621520996094
4039,0,0,0.16069412231445312
4040,0,0,0.16069412231445312
4041,0,0,0.16045570373535156
4042,0,0,0.16164779663085938
4043,0,0,0.16117095947265625
4044,0,0,0.1614093780517578
4045,0,0,0.16021728515625
4046,0,0,0.16045570373535156
4047,0,0,0.16045570373535156
4048,0,0,0.16045570373535156
4049,0,0,0.1614093780517578
4050,0,0,0.15997886657714844
4051,0,0,0.16045570373535156
4052,0,0,0.16379356384277344
4053,0,0,0.1614093780517578
4054,0,0,0.16069412231445312
4055,0,0,0.18167495727539062
4056,0,0,0.1614093780517578
4057,0,0,0.16236305236816406
4058,0,0,0.16117095947265625
4059,0,0,0.16260147094726562
4060,0,0,0.16188621520996094
4061,0,0,0.16117095947265625
4062,0,0,0.16164779663085938
4063,0,0,0.1614093780517578
4064,0,0,0.16069412231445312
4065,0,0,0.16069412231445312
4066,0,0,0.1609325408935547
4067,0,0,0.15997886657714844
4068,0,0,0.16427040100097656
4069,0,0,0.15997886657714844
4070,0,0,0.15974044799804688
4071,0,0,0.1609325408935547
4072,0,0,0.16021728515625
4073,0,0,0.16045570373535156
4074,0,0,0.16045570373535156
4075,0,0,0.16045570373535156
4076,0,0,0.17976760864257812
4077,0,0,0.16164779663085938
4078,0,0,0.16021728515625
4079,0,0,0.16069412231445312
4080,0,0,0.15997886657714844
4081,0,0,0.16069412231445312
4082,0,0,0.16427040100097656
4083,0,0,0.15997886657714844
4084,0,0,0.16164779663085938
4085,0,0,0.164031982421875
4086,0,0,0.16188621520996094
4087,0,0,0.16117095947265625
4088,0,0,0.15997886657714844
4089,0,0,0.1614093780517578
4090,0,0,0.1609325408935547
4091,0,0,0.1609325408935547
4092,0,0,0.1614093780517578
4093,0,0,0.16117095947265625
4094,0,0,0.1614093780517578
4095,0,0,0.16164779663085938
4096,0,0,0.1780986785888672
4097,0,0,0.16260147094726562
4098,0,0,0.16260147094726562
4099,0,0,0.16164779663085938
4100,0,0,0.164031982421875
4101,0,0,0.16021728515625
4102,0,0,0.16307830810546875
4103,0,0,0.1609325408935547
4104,0,0,0.16069412231445312
4105,0,0,0.16045570373535156
4106,0,0,0.16045570373535156
4107,0,0,0.1609325408935547
4108,0,0,0.1609325408935547
4109,0,0,0.1614093780517578
4110,0,0,0.1609325408935547
4111,0,0,0.15997886657714844
4112,0,0,0.1595020294189453
4113,0,0,0.16045570373535156
4114,0,0,0.16117095947265625
4115,0,0,0.16045570373535156
4116,0,0,0.16260147094726562
4117,0,0,0.17976760864257812
4118,0,0,0.16164779663085938
4119,0,0,0.16117095947265625
4120,0,0,0.16117095947265625
4121,0,0,0.1614093780517578
4122,0,0,0.1590251922607422
4123,0,0,0.15974044799804688
4124,0,0,0.16069412231445312
4125,0,0,0.16069412231445312
4126,0,0,0.1609325408935547
4127,0,0,0.16760826110839844
4128,0,0,0.1876354217529297
4129,0,0,0.18596649169921875
4130,0,0,0.18334388732910156
4131,0,0,0.1804828643798828
4132,0,0,0.1811981201171875
4133,0,0,0.18978118896484375
4134,0,0,0.17786026000976562
4135,0,0,0.17142295837402344
4136,0,0,0.20432472229003906
4137,0,0,0.16736984252929688
4138,0,0,0.16236305236816406
4139,0,0,0.16188621520996094
4140,0,0,0.16021728515625
4141,0,0,0.17189979553222656
4142,0,0,0.16379356384277344
4143,0,0,0.16069412231445312
4144,0,0,0.1614093780517578
4145,0,0,0.16045570373535156
4146,0,0,0.16045570373535156
4147,0,0,0.1609325408935547
4148,0,0,0.1628398895263672
4149,0,0,0.1609325408935547
4150,0,0,0.16045570373535156
4151,0,0,0.16164779663085938
4152,0,0,0.16021728515625
4153,0,0,0.16021728515625
4154,0,0,0.16021728515625
4155,0,0,0.16117095947265625
4156,0,0,0.1614093780517578
4157,0,0,0.16498565673828125
4158,0,0,0.16045570373535156
4159,0,0,0.16999244689941406
4160,0,0,0.1609325408935547
4161,0,0,0.16117095947265625
4162,0,0,0.16164779663085938
4163,0,0,0.16045570373535156
4164,0,0,0.16355514526367188
4165,0,0,0.16117095947265625
4166,0,0,0.16498565673828125
4167,0,0,0.1628398895263672
4168,0,0,0.16188621520996094
4169,0,0,0.16450881958007812
4170,0,0,0.15974044799804688
4171,0,0,0.16117095947265625
4172,0,0,0.1609325408935547
4173,0,0,0.16021728515625
4174,0,0,0.16069412231445312
4175,0,0,0.16045570373535156
4176,0,0,0.1595020294189453
4177,0,0,0.1838207244873047
4178,0,0,0.1633167266845703
4179,0,0,0.1614093780517578
4180,0,0,0.16450881958007812
4181,0,0,0.16069412231445312
4182,0,0,0.16117095947265625
4183,0,0,0.16069412231445312
4184,0,0,0.15974044799804688
4185,0,0,0.16117095947265625
4186,0,0,0.16307830810546875
4187,0,0,0.1628398895263672
4188,0,0,0.16117095947265625
4189,0,0,0.16117095947265625
4190,0,0,0.16069412231445312
4191,0,0,0.16164779663085938
4192,0,0,0.16164779663085938
4193,0,0,0.16069412231445312
4194,0,0,0.15997886657714844
4195,0,0,0.16069412231445312
4196,0,0,0.16427040100097656
4197,0,0,0.19216537475585938
4198,0,0,0.17023086547851562
4199,0,0,0.16236305236816406
4200,0,0,0.16117095947265625
4201,0,0,0.1628398895263672
4202,0,0,0.1609325408935547
4203,0,0,0.15997886657714844
4204,0,0,0.16021728515625
4205,0,0,0.16164779663085938
4206,0,0,0.16069412231445312
4207,0,0,0.16069412231445312
4208,0,0,0.1595020294189453
4209,0,0,0.16045570373535156
4210,0,0,0.1609325408935547
4211,0,0,0.1690387725830078
4212,0,0,0.18215179443359375
4213,0,0,0.18286705017089844
4214,0,0,0.18095970153808594
4215,0,0,0.18095970153808594
4216,0,0,0.1785755157470703
4217,0,0,0.3337860107421875
4218,0,0,0.16760826110839844
4219,0,0,0.1742839813232422
4220,0,0,0.17976760864257812
4221,0,0,0.1862049102783203
4222,0,0,0.18072128295898438
4223,0,0,0.1773834228515625
4224,0,0,0.16760826110839844
4225,0,0,0.1614093780517578
4226,0,0,0.16117095947265625
4227,0,0,0.16188621520996094
4228,0,0,0.16379356384277344
4229,0,0,0.16117095947265625
4230,0,0,0.1614093780517578
4231,0,0,0.16045570373535156
4232,0,0,0.16164779663085938
4233,0,0,0.1609325408935547
4234,0,0,0.171661376953125
4235,0,0,0.1995563507080078
4236,0,0,0.18095970153808594
4237,0,0,0.16832351684570312
4238,0,0,0.16379356384277344
4239,0,0,0.16307830810546875
4240,0,0,0.16307830810546875
4241,0,0,0.15974044799804688
4242,0,0,0.1609325408935547
4243,0,0,0.16069412231445312
4244,0,0,0.1652240753173828
4245,0,0,0.16427040100097656
4246,0,0,0.1628398895263672
4247,0,0,0.16164779663085938
4248,0,0,0.17189979553222656
4249,0,0,0.16164779663085938
4250,0,0,0.16236305236816406
4251,0,0,0.16379356384277344
4252,0,0,0.16021728515625
4253,0,0,0.16045570373535156
